10:46:31.1410	599616102273752676	51	58	78	9	-90	-146	-243	-414	-596	-675	-668	-724	-819	-657	-119	438	522	-58	-886	-1082	-627	-459	-645	-688	-654	-636	-573	-497	-425	-373	-409	-454	-393	-317	-315	-344	-335	-288	-245	-220	-166	-101	-69	4	141	209	216	247	274	330	432	450	346	252	229	164	72
10:46:31.5920	599616102710984064	24	-40	-137	-193	-236	-405	-587	-562	-474	-492	-506	-459	-420	-405	-380	-344	-321	-303	-265	-211	-191	-204	-184	-126	-103	-105	-92	-74	-76	-69	-42	-45	-144	-247	-225	-164	-166	-162	-121	-108	-114	-117	-137	-164	-173	-180	-162	-121	-101	-76	-27	-4	-24	-22	9	18	-9
10:46:32.0120	599616103148215448	-29	-11	15	15	27	47	-31	-243	-369	-310	-276	-333	-247	189	798	1008	470	-504	-976	-607	-315	-447	-492	-447	-506	-555	-528	-499	-465	-432	-443	-438	-380	-335	-326	-310	-279	-213	-87	-15	-119	-285	-339	-238	-126	-150	-146	-47	-11	-22	-15	-2	-11	-81	-198	-274	-299
10:46:32.4620	599616103585416318	-335	-369	-357	-355	-470	-666	-706	-603	-582	-605	-537	-459	-434	-400	-344	-317	-310	-279	-220	-175	-168	-177	-146	-94	-96	-128	-112	-90	-96	-81	-36	-9	-4	-15	-6	27	31	38	69	65	42	63	105	128	164	175	144	220	423	468	263	108	171	240	234	254	225
10:46:32.9080	599616104022617184	114	81	101	94	78	-94	-387	-504	-362	-110	40	-60	-240	-177	36	96	78	121	114	72	99	157	166	157	159	135	87	99	162	168	132	135	110	6	-29	72	108	38	-42	-105	-110	-164	-204	18	225	85	-24	135	195	85	67	155	218	227	209	229	267
10:46:33.4180	599616104459848572	227	92	-92	-195	-182	-256	-373	-420	-483	-501	-445	-429	-436	-387	-355	-402	-411	-355	-319	-328	-391	-459	-342	96	571	571	-83	-864	-940	-560	-495	-522	-387	-382	-506	-648	-724	-625	-528	-560	-528	-355	-189	-121	-87	-47	-42	-13	76	110	63	6	38	173	227	198	238
10:46:33.7520	599616104897079956	299	317	337	369	389	355	254	153	60	-175	-474	-562	-519	-546	-585	-553	-501	-531	-585	-535	-456	-441	-418	-362	-337	-335	-299	-238	-202	-202	-198	-157	-121	-114	-94	-63	-65	-83	-58	-15	0	-15	-20	9	33	9	-36	-67	-87	-99	-78	-40	-29	-42	-38	-15	-11
10:46:34.2330	599616105334280826	-20	0	4	-180	-402	-333	-211	-310	-411	-418	-436	-335	-108	-58	-121	-103	-101	-171	-258	-303	-344	-411	-396	-333	-312	-263	-225	-261	-265	-211	-216	-254	-231	-234	-292	-274	-202	-171	-175	-175	-137	-78	-69	-74	-29	6	-13	-18	24	65	40	-38	-49	-9	-45	-108	-112
10:46:34.6530	599616105771512210	-110	-108	-74	0	74	58	-47	-128	-195	-387	-591	-623	-621	-702	-711	-636	-598	-618	-625	-576	-517	-479	-362	-18	472	630	76	-864	-1262	-886	-623	-711	-675	-560	-526	-492	-459	-441	-378	-308	-285	-256	-189	-123	-94	-78	-36	-2	-4	15	87	139	148	159	191	218	243
10:46:35.1290	599616106208713080	294	366	420	416	362	319	211	-83	-346	-398	-432	-508	-501	-454	-454	-463	-420	-362	-330	-306	-261	-234	-227	-202	-157	-117	-105	-114	-94	-54	-49	-45	-20	-15	-54	-153	-256	-265	-258	-281	-258	-207	-198	-186	-141	-132	-144	-117	-63	-40	-47	-49	-29	-6	0	18	42
10:46:35.5230	599616106645944464	31	11	38	74	51	-13	-47	-56	-182	-416	-546	-578	-672	-733	-672	-621	-632	-627	-598	-571	-551	-526	-477	-450	-463	-447	-387	-351	-346	-326	-299	-285	-272	-240	-195	-175	-184	-171	-121	-85	-67	-47	-58	-135	-243	-303	-285	-283	-308	-276	-213	-191	-177	-137	-110	-103	-101
10:46:35.9720	599616107083145334	-38	292	864	1158	812	-24	-668	-560	-283	-380	-443	-317	-236	-238	-272	-245	-114	15	18	-22	4	6	-33	-27	-9	-11	42	119	141	193	315	321	209	213	306	351	400	463	470	459	459	423	333	243	155	51	-24	11	153	216	63	-81	13	65	-47	-85	-65
10:46:36.4220	599616107520346200	-103	-146	-92	63	96	-60	-42	54	-209	-425	-303	-337	-425	-317	-283	-263	-123	-72	-108	-103	-63	-33	-13	-47	-126	-123	-81	-153	-333	-423	-330	-256	-252	-193	-132	-162	-209	-175	-105	-65	-13	6	-69	-101	-45	-36	-56	-47	-36	27	135	132	40	40	78	49	18
10:46:36.8730	599616107957577588	9	-9	-13	-42	-180	-337	-371	-321	-312	-416	-562	-551	-445	-470	-567	-571	-537	-533	-474	-391	-402	-490	-555	-555	-526	-526	-540	-526	-508	-513	-519	-519	-573	-639	-596	-517	-497	-456	-351	-288	-303	-326	-288	-216	-267	-391	-353	-231	-200	-184	-137	-121	-121	-110	-105	9	409
10:46:37.2880	599616108394808972	929	1084	598	-202	-479	-96	65	-119	-139	-60	-99	-256	-438	-508	-526	-549	-506	-434	-409	-398	-344	-265	-218	-198	-168	-117	-60	-31	-9	96	211	204	225	281	245	263	389	434	369	281	155	54	-24	-128	-159	-137	-162	-200	-177	-139	-126	-112	-76	-31	-33	-78	-58
10:46:37.7130	599616108832009842	9	9	-18	0	-36	-211	-378	-357	-303	-346	-346	-265	-229	-243	-254	-294	-324	-288	-236	-207	-177	-195	-281	-310	-274	-258	-249	-222	-209	-193	-146	-101	-103	-123	-101	-60	-54	-42	-2	22	20	31	63	83	63	15	-18	-56	-92	-85	-60	-67	-81	-58	-13	4	-24
10:46:38.1320	599616109269241226	-20	166	648	1138	1107	391	-546	-866	-495	-283	-393	-384	-297	-283	-290	-281	-265	-256	-272	-297	-315	-342	-400	-450	-445	-432	-441	-420	-360	-324	-364	-416	-371	-281	-245	-211	-141	-85	-58	-29	2	-24	-128	-227	-272	-319	-380	-405	-396	-400	-405	-364	-303	-292	-328	-333	-281
10:46:38.6110	599616109706442096	-249	-245	-216	-213	-339	-526	-558	-472	-468	-486	-420	-360	-351	-326	-274	-265	-274	-236	-173	-141	-148	-157	-126	-85	-76	-67	-33	-15	-29	-60	-78	-65	-56	-76	-78	-67	-67	-51	-54	-155	-245	-202	-139	-146	-146	-126	-119	-72	204	778	1197	936	67	-603	-407	18	-11
10:46:39.0020	599616110143673480	-87	11	24	-11	-2	-42	-114	-121	-72	-81	-227	-369	-344	-279	-279	-245	-162	-117	-112	-69	6	67	114	173	227	263	292	339	387	375	301	222	159	74	-22	-87	-171	-276	-306	-258	-231	-252	-274	-243	-193	-189	-209	-265	-351	-393	-405	-396	-364	-369	-405	-423	-434
10:46:39.5070	599616110580904868	-479	-526	-533	-609	-819	-924	-832	-785	-821	-796	-729	-722	-738	-693	-634	-630	-621	-558	-501	-483	-452	-400	-355	-333	-319	-285	-261	-281	-294	-247	-193	-180	-177	-159	-135	-117	-92	-58	-63	-96	112	729	1296	1179	326	-497	-461	-40	-49	-144	-38	-27	-67	6	74	51	-22
10:46:39.9300	599616111018105734	-69	-58	-38	-13	33	51	40	63	108	29	-155	-209	-130	-105	-85	13	108	137	132	121	130	137	110	54	-36	-146	-220	-236	-245	-283	-301	-267	-229	-218	-189	-146	-141	-150	-121	-72	-49	-54	-54	-27	2	2	18	45	31	6	6	-27	-69	-78	-72	-60	-54
10:46:40.3530	599616111455306604	-56	-40	-42	-168	-326	-326	-274	-344	-418	-387	-373	-470	-546	-490	-436	-461	-441	-364	-321	-308	-279	-254	-238	-222	-191	-171	-211	-272	-254	-195	-175	-171	-144	-121	-121	-112	-74	-36	-31	-49	-38	-2	11	9	27	40	18	-20	-40	-42	-65	-99	-117	-150	-209	-265	-306
10:46:40.8020	599616111892537988	-344	-393	-414	-382	-360	-380	-400	-375	-414	-603	-733	-666	-627	-661	-625	-623	-708	-722	-663	-623	-587	-546	-497	-445	-434	-427	-371	-312	-292	-285	-265	-227	-195	-207	-216	-189	-191	-200	-153	-103	-96	-92	-72	-51	-40	-24	15	38	18	13	54	83	83	83	101	128	144
10:46:41.2240	599616112329754119	164	184	164	121	119	144	126	74	22	-36	-146	-310	-364	-292	-281	-335	-328	-148	337	929	1050	423	-434	-652	-348	-315	-463	-400	-308	-301	-270	-213	-173	-153	-141	-108	-51	-9	-4	-11	-24	-51	-51	-6	42	54	65	123	198	234	225	209	240	285	292	285	252
10:46:41.6680	599616112766970242	155	22	-85	-173	-281	-389	-452	-513	-688	-886	-873	-789	-821	-810	-715	-704	-756	-735	-670	-636	-609	-558	-495	-461	-461	-434	-371	-328	-317	-297	-267	-249	-281	-339	-330	-294	-308	-294	-227	-191	-189	-164	-135	-128	-117	-81	-36	-42	-90	-87	-36	-22	-24	4	18	9	22
10:46:42.0930	599616113204201630	63	92	83	63	76	65	-96	-281	-283	-238	-265	-247	-171	-132	-146	-144	-101	-67	-60	-36	0	13	4	-18	-24	-11	-13	-15	13	36	31	54	90	67	29	51	87	81	69	51	-33	-164	-211	-175	-191	-265	-297	-285	-328	-382	-380	-366	-366	-366	-384	-418	-436
10:46:42.5130	599616113641402496	-441	-427	-382	-346	-342	-328	-312	-384	-569	-659	-578	-537	-558	-492	-396	-373	-366	-333	-312	-317	-299	-245	-198	-189	-195	-168	-119	-99	-94	-103	-168	-51	468	1019	1012	328	-425	-436	-33	-27	-146	-36	9	-47	-4	72	83	78	58	-13	-76	-65	-24	6	20	33	69
10:46:43.0200	599616114078633884	128	166	173	189	202	94	-103	-132	-22	4	9	96	166	171	155	119	56	-20	-94	-135	-159	-211	-231	-191	-153	-146	-135	-112	-94	-78	-49	-24	-58	-128	-132	-87	-90	-157	-231	-272	-321	-366	-355	-328	-344	-369	-355	-319	-312	-321	-312	-306	-315	-310	-276	-238	-240
10:46:43.3830	599616114515834750	-283	-353	-411	-407	-371	-346	-362	-441	-490	-432	-366	-364	-382	-382	-393	-481	-544	-492	-454	-468	-423	-339	-301	-299	-276	-227	-195	-184	-144	-94	-96	-112	-74	-22	0	-2	-2	22	51	56	72	103	92	63	54	29	2	4	13	24	36	45	76	103	87	74	112
10:46:43.8580	599616114953035620	144	141	135	135	85	-83	-247	-222	-162	-216	-283	-263	-213	-209	-202	-180	-180	-182	-155	-162	-213	-240	-204	-166	-141	-112	-99	-105	-18	375	958	1158	641	-231	-569	-162	81	-49	-20	72	27	22	94	123	108	101	128	159	162	171	195	173	132	148	193	216	220
10:46:44.2530	599616115390267004	231	263	301	330	371	414	355	175	87	148	146	54	9	-27	-114	-200	-238	-279	-380	-486	-488	-438	-423	-418	-382	-333	-317	-335	-312	-270	-279	-272	-211	-173	-171	-150	-132	-128	-117	-90	-56	-47	-72	-69	-22	-2	-11	-2	11	4	0	22	51	49	20	24	65
10:46:44.7030	599616115827467874	69	20	-40	-94	-234	-427	-456	-371	-391	-463	-459	-420	-420	-414	-405	-447	-497	-522	-533	-526	-533	-544	-519	-490	-488	-470	-436	-468	-553	-569	-506	-474	-488	-506	-533	-540	-508	-452	-400	-380	-373	-333	-292	-283	-294	-292	-261	-236	-225	-180	-141	-157	-157	-108	-92	-103	101
10:46:45.1230	599616116264699258	659	1154	1035	274	-429	-418	-216	-405	-515	-432	-465	-483	-398	-357	-344	-281	-211	-184	-182	-144	-83	-49	-27	6	36	40	47	92	155	180	184	229	303	351	384	429	402	285	218	222	173	40	-92	-159	-193	-236	-252	-234	-236	-245	-216	-162	-123	-123	-128	-99	-63
10:46:45.6030	599616116701900128	-56	-33	-6	-85	-294	-409	-344	-306	-337	-321	-267	-245	-236	-198	-155	-157	-186	-193	-166	-144	-146	-137	-105	-92	-85	-54	-24	-40	-49	-9	24	20	13	29	40	38	42	72	92	72	60	92	112	103	65	-24	-112	-132	-150	-186	-193	-200	-195	-146	-114	-114	-101
10:46:46.0490	599616117139100994	-83	-81	-67	-18	29	31	2	-4	-4	-128	-346	-414	-360	-366	-371	-306	-249	-256	-258	-227	-218	-166	175	715	902	418	-429	-837	-535	-355	-544	-589	-517	-540	-542	-488	-488	-501	-456	-400	-380	-382	-371	-335	-312	-306	-265	-213	-209	-202	-148	-81	-36	-36	-96	-166	-175
10:46:46.5020	599616117576301864	-130	-60	-47	-191	-378	-402	-396	-499	-591	-614	-639	-672	-659	-600	-569	-571	-535	-456	-405	-384	-351	-315	-288	-263	-222	-168	-144	-159	-144	-92	-87	-130	-132	-108	-108	-103	-60	-22	-27	-42	-13	22	24	29	54	65	51	60	101	123	110	94	110	132	132	135	157
10:46:46.8920	599616118013533248	155	130	137	166	182	135	24	-51	-56	-74	-83	-51	-128	-344	-441	-355	-321	-357	-328	-272	-256	-238	-186	-150	-159	-159	-114	-76	-67	-69	-56	-33	-27	-20	18	42	18	-20	-51	-67	-69	-65	-45	-11	11	24	54	60	20	0	22	40	42	49	49	45	51
10:46:47.3430	599616118450734118	72	85	45	22	301	879	1149	616	-366	-879	-591	-288	-371	-432	-420	-504	-522	-429	-391	-387	-364	-382	-405	-369	-321	-321	-364	-393	-407	-427	-425	-389	-348	-335	-324	-270	-191	-132	-110	-81	-20	29	40	51	31	-92	-243	-308	-333	-391	-452	-468	-450	-434	-420	-373	-326
10:46:47.7630	599616118887934984	-337	-335	-267	-211	-204	-204	-191	-200	-333	-504	-499	-432	-463	-459	-371	-324	-326	-308	-274	-249	-258	-267	-234	-231	-312	-344	-283	-245	-236	-209	-180	-171	-155	-119	-74	-65	-81	-63	-18	-2	4	36	58	67	81	110	135	117	69	67	99	117	99	58	36	27	36
10:46:48.2380	599616119325166372	67	94	78	40	114	474	927	974	425	-456	-897	-517	-166	-258	-276	-173	-162	-164	-137	-110	-81	-72	-76	-42	9	31	24	-9	-40	-36	-11	18	-4	-99	-119	-31	40	76	123	177	225	258	285	317	306	218	112	33	-76	-202	-267	-292	-333	-387	-420	-432	-474
10:46:48.6330	599616119762367238	-528	-528	-533	-587	-605	-569	-562	-663	-846	-895	-796	-771	-803	-744	-663	-641	-621	-573	-546	-537	-501	-441	-396	-384	-380	-346	-297	-274	-252	-216	-204	-209	-182	-135	-128	-162	-173	-139	-105	-96	-83	-117	-229	-279	-225	-175	-159	-150	-144	-105	-51	-27	-2	36	24	-9	4
10:46:49.0830	599616120199598626	36	36	24	24	22	-78	-276	-335	-261	-276	-344	-335	-236	108	706	1044	661	-213	-677	-317	-15	-175	-198	-51	-40	-58	-13	15	22	42	67	105	130	119	117	153	175	173	193	245	283	303	321	288	256	285	337	389	436	461	441	337	227	171	117	40	-47
10:46:49.5030	599616120636799492	-135	-173	-171	-184	-193	-168	-200	-373	-528	-490	-414	-436	-445	-420	-434	-447	-441	-474	-522	-544	-564	-603	-632	-639	-632	-607	-582	-573	-542	-506	-513	-515	-468	-425	-418	-418	-398	-369	-348	-328	-288	-258	-270	-265	-218	-175	-166	-157	-162	-207	-249	-227	-177	-162	-177	-173	-126
10:46:49.9530	599616121074015622	-85	-76	-108	-193	-324	-488	-580	-524	-474	-499	-468	-387	-351	-339	-303	-270	-256	-231	-180	-130	-123	-135	-103	-60	-60	-56	-20	-24	-60	-49	-6	24	24	9	31	78	92	103	126	114	90	105	141	159	164	186	245	267	234	229	249	213	166	180	225	245	207
10:46:50.4320	599616121511231746	126	87	90	81	78	76	-47	-265	-326	-238	-211	-281	-344	-339	-335	-299	33	632	967	657	-121	-616	-348	-6	-63	-101	-65	-101	-78	-20	-47	-99	-101	-81	-72	-54	2	24	-33	-9	195	364	281	229	540	798	661	531	571	544	488	515	533	483	429	402	373
10:46:50.8230	599616121948432616	256	69	-63	-195	-351	-398	-420	-544	-672	-731	-731	-738	-855	-960	-913	-868	-879	-819	-729	-681	-690	-747	-740	-670	-639	-598	-533	-524	-519	-445	-375	-360	-355	-335	-294	-263	-245	-216	-220	-292	-319	-258	-204	-191	-182	-168	-150	-139	-121	-83	-74	-121	-207	-247	-195	-193	-191
10:46:51.2430	599616122385633482	-105	-119	-173	-121	-60	-105	-288	-438	-393	-326	-326	-261	-234	-303	-301	-261	-258	-247	-249	-243	-191	-150	-137	-108	-85	-94	-94	-56	-6	-6	-87	-153	-121	-94	-101	-72	-47	-60	-54	-11	22	15	-2	15	63	63	20	9	20	9	27	85	105	54	-18	-47	-51
10:46:51.7230	599616122822864870	-76	-112	-157	-297	-522	-623	-560	-537	-580	-582	-540	-360	126	657	634	-94	-877	-868	-398	-330	-490	-472	-434	-445	-402	-333	-303	-306	-281	-220	-173	-155	-135	-110	-83	-60	-22	31	54	0	-54	-9	58	78	126	198	236	261	315	375	384	333	263	168	40	-63	-121
10:46:52.1430	599616123260065736	-173	-216	-231	-209	-168	-168	-189	-162	-132	-256	-452	-470	-405	-414	-400	-324	-279	-272	-258	-227	-191	-168	-146	-114	-108	-123	-114	-94	-128	-198	-213	-173	-148	-144	-114	-81	-85	-94	-58	-15	-2	-6	-4	15	27	29	54	36	-83	-155	-105	-65	-74	-69	-51	-36	-31
10:46:52.6180	599616123697266606	-20	11	27	-20	-94	-128	-173	-342	-517	-533	-531	-596	-616	-607	-616	-634	-609	-549	-522	-522	-497	-468	-461	-447	-402	-360	-351	-351	-301	-231	-220	-231	-209	-189	-200	-234	-254	-225	-213	-225	-184	-112	-103	-130	-126	-117	24	517	1084	1104	402	-402	-447	-13	36	-92	-51
10:46:53.0130	599616124134467472	-119	-238	-182	-92	-87	-92	-69	-40	-99	-285	-423	-407	-398	-409	-333	-238	-207	-186	-135	-60	13	67	114	177	218	243	308	378	400	375	292	193	112	36	-11	-40	-101	-137	-99	-63	-58	-42	-49	-94	-112	-81	-36	-9	-18	-4	58	92	92	103	45	-72	-72
10:46:53.4890	599616124571668342	-2	42	144	209	146	112	49	-191	-429	-546	-533	-423	-405	-468	-438	-384	-369	-360	-384	-398	-344	-303	-297	-263	-213	-175	-162	-155	-126	-85	-72	-56	-24	-27	-47	-24	20	45	45	47	51	45	42	67	90	74	54	76	114	110	63	31	42	49	45	72	96
10:46:53.8830	599616125008899726	74	54	85	114	105	87	78	22	-162	-344	-348	-321	-411	-483	-459	-470	-553	-632	-681	-688	-675	-654	-603	-582	-625	-659	-632	-587	-560	-528	-499	-486	-477	-454	-310	117	648	783	258	-535	-753	-339	-189	-353	-308	-182	-171	-177	-164	-137	-96	-69	-49	-18	0	-2	0
10:46:54.3630	599616125446100596	-13	-38	-45	15	67	-33	-180	-227	-191	-110	-42	-9	58	130	155	168	209	225	198	162	101	-9	-108	-132	-121	-155	-256	-319	-290	-263	-256	-227	-245	-312	-312	-243	-200	-191	-171	-144	-123	-103	-78	-40	-18	-38	-42	-4	22	15	13	27	45	56	67	56	-9
10:46:54.7790	599616125883301462	-36	4	33	38	45	54	42	4	-4	38	40	-67	-211	-258	-276	-319	-288	-227	-222	-231	-204	-141	-78	-63	-92	-108	-76	-31	-4	-22	-58	-54	-24	-13	-58	-166	-216	-171	-146	-175	-189	-164	-159	-171	-139	-94	-83	-92	-83	-56	-45	-47	-22	13	6	-15	11
10:46:55.2030	599616126320532850	38	33	18	-11	-49	-164	-330	-380	-400	-537	-634	-632	-634	-661	-708	-744	-729	-702	-686	-648	-630	-607	-308	299	650	308	-524	-1050	-774	-400	-441	-447	-346	-362	-362	-272	-236	-240	-200	-166	-157	-130	-112	-175	-258	-267	-261	-285	-267	-207	-159	-128	-90	-29	45	117	164
10:46:55.6230	599616126757733716	193	243	303	328	330	324	225	-47	-310	-371	-378	-461	-499	-459	-427	-409	-366	-315	-301	-294	-254	-234	-279	-308	-279	-236	-216	-195	-150	-119	-130	-128	-81	-45	-45	-45	-24	-9	-9	2	40	63	38	18	56	101	101	90	94	99	99	90	31	-85	-166	-157	-114
10:46:56.0720	599616127194934586	-96	-90	-60	-31	-92	-274	-389	-335	-319	-382	-364	-290	-263	-249	-213	-193	-189	-162	-117	-81	-94	-78	204	794	1194	929	90	-582	-436	-54	-85	-141	-49	-54	-78	-33	-27	-45	-49	-87	-123	-108	-78	-99	-157	-200	-225	-238	-231	-207	-182	-182	-177	-117	-42	-2	20
10:46:56.4920	599616127632135452	60	108	135	105	9	-123	-348	-636	-747	-722	-771	-821	-789	-742	-720	-681	-612	-560	-549	-519	-454	-398	-369	-344	-315	-285	-261	-227	-177	-153	-164	-155	-103	-74	-76	-83	-119	-166	-166	-132	-96	-83	-92	-76	-36	-11	-6	6	20	18	22	51	83	83	63	85	139
10:46:57.0130	599616128069336322	159	155	157	110	-65	-261	-281	-222	-240	-258	-227	-234	-285	-337	-378	-387	-393	-317	92	751	1062	634	-243	-715	-391	-72	-168	-204	-117	-101	-74	-20	-20	-20	18	45	47	83	126	114	101	148	195	182	153	164	204	227	254	315	369	366	373	432	483	483	461
10:46:57.3630	599616128506567706	425	351	249	153	78	9	-69	-108	-99	-162	-362	-495	-456	-434	-463	-423	-344	-319	-346	-364	-321	-283	-337	-407	-398	-387	-427	-436	-398	-398	-432	-441	-452	-490	-533	-553	-562	-573	-560	-515	-488	-501	-504	-470	-438	-432	-407	-371	-371	-387	-402	-425	-418	-405	-398	-366	-328
10:46:57.8430	599616128943768576	-315	-283	-254	-357	-562	-618	-522	-495	-515	-474	-416	-389	-360	-303	-263	-274	-265	-207	-162	-150	-139	-117	-96	-85	-72	-72	-117	-162	-148	-110	-144	-240	-267	-227	-213	-204	-159	-110	-92	-101	-87	-36	-2	2	15	31	36	40	63	99	103	78	85	126	137	126	137
10:46:58.2920	599616129380969442	117	40	0	38	69	51	31	40	42	-78	-249	-261	-216	-267	-288	-216	-177	-209	-218	-173	-132	-123	-101	-63	-58	-67	-54	-40	83	522	1089	1219	634	-229	-468	-67	31	-157	-92	-20	-159	-240	-186	-153	-150	-114	-63	-31	-38	-31	18	69	81	85	114	150	166
10:46:58.7130	599616129818170312	189	245	281	258	254	321	398	429	418	389	335	175	-2	-76	-177	-346	-425	-436	-497	-580	-616	-648	-704	-717	-666	-623	-627	-634	-596	-546	-533	-515	-481	-463	-463	-445	-398	-355	-357	-389	-423	-434	-423	-398	-366	-351	-348	-324	-297	-355	-454	-456	-391	-360	-348	-310	-263
10:46:59.1580	599616130255401700	-252	-252	-216	-162	-135	-139	-137	-117	-186	-378	-461	-387	-380	-409	-364	-353	-398	-391	-344	-310	-288	-256	-207	-166	-171	-168	-126	-92	-94	-92	-76	-60	-51	-38	2	27	11	9	56	85	83	87	103	105	105	126	144	103	24	15	58	65	54	74	94	85	69
10:46:59.5820	599616130692602566	45	-13	-60	-74	-60	-47	-155	-360	-423	-375	-393	-402	-335	-301	-351	-380	-335	-297	-333	-396	-348	-15	483	679	238	-600	-1001	-663	-423	-551	-546	-429	-418	-429	-393	-348	-301	-261	-252	-240	-200	-159	-141	-103	-56	-51	-42	15	72	92	117	164	209	254	288	299	317
10:47:00.0030	599616131129803432	337	346	375	400	369	292	200	67	-193	-506	-623	-600	-632	-630	-537	-479	-465	-423	-373	-348	-317	-265	-209	-186	-193	-171	-114	-87	-85	-99	-141	-168	-148	-112	-78	-69	-81	-60	-18	-2	4	29	33	6	2	40	65	51	31	54	85	87	92	117	114	96	112
10:47:00.4530	599616131567034820	150	159	139	117	94	-18	-231	-351	-312	-317	-389	-375	-315	-301	-321	-344	-357	-396	-495	-589	-607	-603	-605	-567	-508	-495	-497	-472	-436	-416	-393	-346	-315	-328	-319	-267	-254	-288	-288	-252	-227	-218	-193	-153	-123	-112	-83	-33	-4	-6	-11	-9	-15	-22	-2	38	42
10:47:00.9010	599616132004235686	20	33	78	94	87	78	117	339	729	929	558	-303	-850	-540	-173	-267	-301	-171	-159	-182	-126	-67	-38	-24	-24	0	40	6	-54	-36	-6	-13	18	83	121	132	150	198	254	292	337	400	436	423	396	391	398	353	272	202	123	27	-24	-51	-108	-141	-112
10:47:01.3520	599616132441436556	-85	-85	-94	-87	-85	-146	-222	-202	-182	-319	-456	-414	-342	-348	-339	-299	-276	-265	-252	-267	-301	-315	-294	-247	-207	-195	-182	-155	-146	-137	-99	-60	-51	-67	-69	-105	-204	-236	-189	-180	-191	-168	-126	-90	-72	-65	-36	4	15	9	-2	-60	-141	-150	-105	-78	-85
10:47:01.7430	599616132878637422	-92	-67	-38	-29	-15	-2	-38	33	486	1059	1035	141	-884	-976	-459	-360	-468	-348	-292	-348	-330	-299	-312	-310	-294	-312	-373	-420	-432	-447	-470	-461	-411	-364	-344	-324	-288	-238	-195	-146	-65	-4	6	4	-24	-69	-78	-90	-150	-236	-319	-380	-400	-423	-463	-461	-407
10:47:02.1920	599616133315838292	-362	-364	-389	-387	-452	-636	-702	-598	-560	-585	-531	-447	-416	-391	-337	-306	-297	-267	-220	-189	-195	-209	-182	-132	-112	-108	-83	-65	-67	-51	-6	24	15	-36	-78	-72	-56	-45	-18	-6	-18	2	49	69	65	58	78	99	96	117	159	166	135	76	-2	-40	-49
10:47:02.6420	599616133753039160	-63	-56	-40	-31	-2	6	-132	-344	-405	-382	-409	-429	-398	-168	393	931	870	114	-648	-587	-132	-119	-234	-132	-83	-110	-72	-22	6	31	33	42	87	121	132	155	177	177	182	218	238	189	141	189	258	279	301	364	411	429	454	513	594	614	479	274	184
10:47:03.0930	599616134190270546	184	159	139	58	-155	-326	-346	-393	-544	-623	-564	-526	-553	-544	-549	-614	-618	-596	-630	-648	-668	-720	-706	-632	-594	-519	-362	-333	-515	-639	-544	-472	-515	-465	-364	-405	-468	-396	-335	-378	-373	-285	-209	-157	-141	-177	-222	-222	-218	-229	-211	-218	-231	-184	-144	-128	-74
10:47:03.5070	599616134627501934	-2	112	261	342	247	132	504	861	465	238	513	436	274	380	346	202	189	229	490	1001	1120	875	821	801	645	587	609	564	499	450	371	258	38	-54	243	333	20	-101	-33	-42	-9	72	-128	-429	-153	209	42	-38	18	-114	-63	117	60	-117	-198	-173	-148
10:47:03.9630	599616135064702800	-128	-65	-49	-225	-497	-585	-465	-357	-348	-357	-366	-384	-369	-285	-135	-63	-148	-144	51	231	360	387	292	371	589	830	1188	1100	-29	-1262	-1300	-742	-659	-693	-396	-126	-139	-164	2	159	117	-33	-56	162	256	36	-94	-20	-180	-362	18	438	405	330	396	382	315
10:47:04.3530	599616135501903666	310	312	321	364	371	315	220	148	85	-92	-360	-672	-1021	-1183	-1107	-1028	-1032	-1014	-940	-866	-834	-805	-740	-693	-668	-600	-526	-497	-474	-436	-301	-94	-90	-312	-418	-236	-67	-132	-191	-137	-139	-175	-148	-110	-110	-105	-76	-58	-47	-42	-103	-283	-351	-195	-60	13	78
10:47:04.8330	599616135939104536	81	83	148	-11	-357	-481	-366	-258	-198	-83	-31	-42	-45	-101	-139	-135	-121	-92	-74	-60	-20	24	38	18	33	92	135	306	792	1246	1111	337	-432	-438	-9	60	-9	128	157	69	90	69	-54	-117	-270	-627	-828	-699	-533	-483	-362	-22	285	324	236	220	344
10:47:05.2530	599616136376305402	418	373	360	351	396	465	366	22	-290	-177	-11	-155	-267	-303	-405	-528	-681	-711	-650	-940	-1226	-796	-328	-452	-533	-364	-326	-450	-605	-749	-796	-544	-299	-274	-49	164	-15	-362	-785	-850	-47	639	398	218	461	456	333	375	355	252	209	171	162	150	-126	-198	265
10:47:05.7280	599616136813506272	225	-348	-499	-450	-517	-558	-742	-1005	-922	-641	-506	-481	-495	-240	477	1021	796	-76	-850	-472	398	317	-135	-139	76	222	112	-94	-299	-339	-72	-110	-546	-594	-254	-45	274	612	432	200	245	92	-159	-92	-2	-63	-29	76	177	272	303	274	256	267	346	551	677
10:47:06.1230	599616137250737656	445	245	342	283	123	126	83	-69	-254	-364	-366	-434	-535	-558	-744	-1257	-1550	-1210	-949	-1082	-834	-229	-96	-308	-321	-285	-351	-357	-306	-272	-256	-249	-234	-195	-191	-249	-283	-256	-238	-247	-220	-168	-159	-175	-175	-157	-130	-110	-94	-18	85	148	306	589	879	949	357
10:47:06.5730	599616137687938526	-279	0	369	211	209	227	-36	-40	83	-76	-177	-148	-207	-229	-180	-162	-148	-105	-85	-65	36	157	202	229	141	20	270	589	537	506	652	659	445	328	504	517	256	157	137	-4	-87	-112	-213	-236	-119	-78	-132	-159	-110	27	119	108	105	94	40	15	47
10:47:06.9930	599616138125139392	83	117	146	69	-85	13	274	60	-299	-227	-139	-342	-506	-265	-6	-56	-49	-36	-598	-1500	-1368	-216	216	-211	-308	-173	-238	-261	-168	-76	-11	-4	-47	-60	157	758	1325	1194	339	-414	-306	85	-6	-150	-36	31	2	-24	-63	-117	-141	-119	-60	-22	-11	15	54
10:47:07.4430	599616138562340262	-310	-1102	-1239	-474	234	398	285	103	-193	-74	432	432	261	402	416	265	119	-81	-177	-108	-173	-384	-441	-441	-594	-695	-634	-603	-643	-648	-587	-553	-609	-645	-564	-474	-459	-452	-560	-695	-479	-299	-558	-609	-339	-378	-479	-312	-245	-328	-328	-276	-299	-254	-27	85	-15
10:47:07.8880	599616138999541128	-85	-63	-69	-148	-155	-78	-108	-258	-400	-445	-274	-67	-105	-171	-101	-42	-29	13	74	63	29	56	103	78	-45	-128	-65	18	60	148	126	-65	-186	-312	-452	-276	42	65	-11	92	159	101	49	33	-204	-414	56	546	384	159	153	123	33	-254	-814	-758	-92
10:47:08.3130	599616139436772516	-283	-767	-303	213	96	-195	-459	-663	-715	-717	-722	-661	-605	-585	-549	-531	-519	-481	-450	-474	-513	-519	-506	-549	-807	-1053	-931	-753	-571	-144	153	162	92	-4	-42	9	24	-22	-78	-155	-198	-164	-146	-177	-182	-168	-231	-355	-389	-348	-355	-380	-384	-319	31	630	900
10:47:08.7330	599616139873973382	499	-308	-792	-517	-207	-317	-474	-569	-587	-589	-796	-864	-668	-618	-477	-276	-319	-396	-578	-693	-452	-434	-535	-164	-20	-333	-157	299	182	-96	-47	-65	-220	-164	-4	33	42	67	13	-69	-110	-189	-301	-324	-155	256	427	153	128	290	65	-207	-144	-132	-324	-326	-274
10:47:09.2120	599616140311174252	-398	-416	-312	-375	-605	-756	-726	-677	-668	-540	-396	-452	-517	-479	-490	-708	-1032	-1091	-951	-832	-555	-324	-441	-684	-751	-450	-126	-150	-130	9	4	-33	-65	-254	-510	-321	81	22	-108	6	27	-96	-166	-132	-87	-54	-27	-20	-56	173	641	479	-463	-1100	-774	-162	211
10:47:09.6020	599616140748405636	434	378	234	256	294	279	249	238	198	18	-216	-281	-231	-236	-243	-177	-112	-110	-112	-42	47	83	123	198	238	272	333	353	310	281	256	87	-81	18	67	-155	-285	-173	-87	-159	-202	-119	-83	-146	-166	-159	-180	-222	-299	-297	-209	-216	-319	-573	-837	-769	-733
10:47:10.1390	599616141185606506	-780	-373	-105	-510	-828	-749	-744	-666	-438	-508	-594	-427	-468	-639	-553	-438	-553	-717	-765	-740	-715	-675	-607	-544	-483	-423	-393	-407	-490	-603	-369	193	549	596	657	470	-265	-558	-326	-441	-393	-130	-351	-621	-508	-411	-438	-384	-292	-238	-231	-229	-168	-103	-76	-47	-9
10:47:10.5030	599616141622807372	20	38	60	117	193	211	209	276	357	380	369	355	292	119	-72	-166	-256	-416	-533	-549	-546	-540	-483	-436	-420	-456	-560	-596	-546	-549	-555	-510	-537	-605	-578	-569	-634	-634	-573	-542	-537	-553	-587	-607	-598	-564	-513	-488	-499	-495	-434	-357	-324	-306	-267	-249	-256
10:47:10.9520	599616142060008242	-236	-193	-207	-240	-204	-153	-209	-391	-524	-490	-445	-452	-427	-321	-11	504	760	360	-474	-938	-618	-261	-321	-328	-189	-159	-182	-150	-101	-65	-36	-9	42	72	11	-56	-27	24	18	22	81	137	166	202	254	303	333	371	429	447	423	407	391	326	220	137	72
10:47:11.3730	599616142497209108	-13	-92	-110	-85	-87	-103	-103	-90	-182	-382	-434	-348	-362	-387	-303	-236	-227	-216	-189	-166	-153	-132	-83	-51	-90	-128	-103	-76	-81	-69	-49	-51	-47	-11	18	22	15	13	33	69	96	103	78	-24	-112	-87	-63	-101	-128	-103	-63	-36	-2	27	2	-24	-40
10:47:11.8230	599616142934409978	-76	-85	-56	135	657	1199	918	-195	-607	-177	-373	-769	-492	-279	-355	-254	-117	-96	-101	-27	42	-96	-135	18	-36	13	256	204	65	45	9	29	38	-24	-15	90	175	204	218	252	297	303	256	198	211	447	744	663	373	159	96	245	265	90	-49	-114	-90
10:47:12.2680	599616143371610844	-22	24	22	-209	-499	-378	-398	-747	-618	-391	-618	-704	-407	-290	-576	-868	-850	-470	-96	-267	-504	-384	-544	-726	-299	20	-94	-177	-465	-677	-164	265	155	144	229	155	110	94	-261	-857	-983	-679	-542	-418	-236	4	427	456	128	-38	312	1275	1588	738	-11	-135	13
10:47:12.7490	599616143808842232	319	542	454	283	148	-177	-607	-391	182	33	-130	288	384	103	-90	-281	-281	4	238	333	398	452	456	499	614	686	711	778	828	778	753	720	663	684	612	391	247	126	-222	-429	-177	-90	-285	-272	-195	-290	-369	-330	-366	-569	-1071	-1608	-1539	-1271	-1284	-1219	-1089
10:47:13.1130	599616144246043098	-1053	-965	-524	270	427	-481	-774	-65	-168	-571	-283	-272	-571	-528	-407	-472	-506	-465	-535	-506	-283	-333	-456	-236	-108	-166	-108	-47	-121	-159	0	31	-274	-357	-76	-13	-155	-155	-146	-153	-47	-29	-186	229	1320	1615	839	74	-173	103	348	267	267	315	177	-56	-38
10:47:13.5630	599616144683243968	303	393	261	301	238	-74	-258	-222	-193	-211	-191	-119	-54	6	81	110	110	146	177	193	24	-488	-524	261	517	60	-56	18	-447	-1244	-1271	-621	-585	-929	-816	-661	-744	-738	-591	-519	-549	-585	-573	-483	-427	-468	-447	-393	-427	-456	-396	-360	-382	-366	-312	-279	-272
10:47:13.9840	599616145120444834	-256	-211	-175	-182	-202	-202	-281	-479	-571	-501	-461	-470	-436	-384	-357	-335	-281	-236	-231	-220	-164	-119	-110	-112	-103	-81	-67	-58	-54	-117	-202	-182	-99	-63	-69	-105	-157	-182	-182	-164	-119	-92	-108	-105	-78	-78	-87	-76	-74	-103	-36	380	1028	1298	794	-117	-477
10:47:14.4580	599616145557676222	-83	110	-58	-45	-69	-306	-384	-330	-380	-407	-373	-420	-497	-490	-483	-526	-526	-479	-423	-348	-297	-270	-211	-144	-105	-72	-18	24	49	126	258	310	256	198	148	60	-58	-193	-353	-463	-486	-472	-470	-501	-540	-528	-470	-420	-382	-330	-297	-297	-288	-247	-207	-191	-182
10:47:14.8530	599616145994877088	-166	-141	-130	-123	-90	-94	-258	-443	-420	-342	-357	-357	-308	-281	-265	-229	-175	-153	-186	-202	-155	-119	-114	-92	-69	-67	-51	-15	20	29	9	18	58	74	69	85	94	90	99	121	137	128	108	117	150	164	121	38	15	45	18	-27	-38	-87	-144	-121	-90
10:47:15.3330	599616146432077958	-126	-175	-198	-297	-508	-609	-537	-531	-614	-614	-551	-544	-555	-517	-472	-477	-479	-432	-380	-360	-357	-362	-342	-144	380	920	888	130	-686	-666	-171	-117	-243	-137	-60	-92	-87	-36	-13	-29	-20	38	85	87	99	90	114	288	375	317	247	272	474	540	414	378	416
10:47:15.7230	599616146869309342	389	285	87	-159	-258	-218	-222	-254	-279	-445	-704	-731	-540	-474	-607	-645	-515	-441	-409	-245	-4	90	45	40	65	49	45	74	85	60	42	49	24	-27	-27	0	-20	-60	-60	-13	15	-29	-90	-94	-96	-121	-135	-173	-245	-294	-324	-335	-335	-342	-353	-357	-357
10:47:16.2030	599616147306510212	-405	-571	-693	-582	-492	-587	-672	-751	-814	-722	-612	-625	-632	-551	-452	-420	-454	-492	-535	-551	-526	-560	-645	-659	-607	-546	-501	-488	-454	-384	-344	-317	-270	-240	-234	-195	-135	-72	-15	-24	-94	-123	-96	-96	-112	-105	-94	-85	-42	-4	-38	-90	-58	-9	-38	22	389
10:47:16.6480	599616147743741596	960	1255	861	-45	-596	-339	-69	-184	-256	-344	-513	-513	-441	-432	-411	-418	-463	-459	-418	-382	-344	-292	-227	-164	-128	-101	-83	-65	27	148	171	168	198	218	249	247	186	173	204	166	65	-51	-182	-308	-405	-461	-490	-537	-614	-659	-607	-533	-522	-510	-465	-429	-414
10:47:17.0730	599616148180942466	-375	-308	-283	-317	-310	-256	-319	-524	-621	-560	-524	-470	-261	-148	-168	-38	27	-2	94	146	108	92	20	-87	-150	-180	-182	-180	-166	-123	-92	-76	-49	-33	-29	9	72	108	121	99	96	240	360	247	112	166	258	234	207	207	211	272	398	513	508	391	263
10:47:17.4930	599616148618173850	312	452	407	321	355	351	303	200	-36	-121	6	18	-90	-144	-76	67	105	-29	-105	-18	-63	-78	117	240	564	1154	1251	573	-258	-429	-18	83	-193	-299	-409	-641	-515	-240	-195	-213	-236	-328	-535	-452	15	166	-40	-261	-544	-681	-580	-546	-371	45	78	-155	-182
10:47:17.9430	599616149055374720	-87	81	195	209	130	-121	-247	-222	-387	-531	-454	-497	-681	-697	-625	-609	-553	-483	-488	-452	-351	-328	-351	-301	-218	-184	-191	-270	-391	-373	-166	27	13	-63	-92	-148	-182	-173	-182	-150	-45	0	-123	-256	-240	-353	-603	-418	33	51	-99	-51	-171	-414	-265	114	173
10:47:18.3630	599616149492575586	18	40	87	29	85	168	128	36	-119	-274	-236	-157	-240	-319	-182	265	753	672	-117	-978	-1039	-281	195	33	-47	74	85	69	112	29	-249	-364	-18	378	391	279	308	337	310	312	351	396	414	387	351	348	348	330	312	292	342	436	447	382	315	200	22
10:47:18.8380	599616149929776456	-128	-254	-396	-450	-303	-247	-661	-1026	-868	-740	-798	-699	-564	-546	-531	-506	-504	-488	-495	-535	-573	-600	-609	-600	-558	-524	-515	-497	-497	-513	-483	-427	-414	-441	-434	-371	-315	-288	-265	-238	-225	-225	-218	-195	-198	-218	-202	-159	-144	-144	-139	-177	-222	-209	-175	-132	99
10:47:19.2330	599616150366977322	648	1093	839	-85	-839	-699	-283	-429	-690	-582	-472	-531	-524	-436	-393	-393	-360	-292	-256	-247	-213	-150	-117	-121	-99	-54	-60	-78	-22	51	78	103	182	274	346	396	414	402	382	337	254	137	24	-31	-45	-58	-63	-60	-63	-51	-63	-72	-4	20	-119	-247	-207
10:47:19.6820	599616150804178192	-139	-162	-182	-148	-159	-272	-342	-265	-191	-200	-177	-114	-67	6	81	94	81	85	114	164	186	148	128	168	195	209	231	112	-193	-407	-366	-292	-342	-396	-373	-267	-85	157	351	380	337	351	396	411	369	353	627	1201	1521	1158	272	-396	-274	-33	-319	-803	-990
10:47:20.1030	599616151241379060	-506	146	110	-245	-276	-114	-65	-283	-535	-522	-445	-429	-303	-207	-247	-229	-148	-96	-56	-69	-153	-146	-27	27	40	103	126	99	105	69	-45	-121	-159	-236	-288	-276	-267	-272	-267	-256	-265	-308	-330	-285	-220	-193	-177	-144	-126	-119	-105	-105	-85	-36	-24	-38	-40
10:47:20.5530	599616151678579928	-60	-74	-60	-69	-193	-375	-396	-285	-258	-281	-229	-166	-159	-144	-108	-126	-173	-148	-67	-42	-92	-101	-51	-22	-29	-33	-27	-15	-29	-76	-87	-47	-36	-58	-49	-33	-38	-20	2	-33	-76	-47	4	-2	-36	-49	-33	-33	-65	-58	-24	-45	-67	-24	29	36	31
10:47:20.9990	599616152115811312	47	60	60	76	112	96	-58	-202	-139	-58	-101	-108	-54	-51	-108	-150	-162	-175	-207	-220	-222	-249	-299	-382	-447	-450	-454	-477	-384	-2	560	803	362	-488	-857	-477	-267	-492	-551	-420	-391	-420	-405	-362	-326	-301	-265	-220	-175	-112	-45	-4	24	67	81	15	-4
10:47:21.4800	599616152553012182	81	144	139	78	-58	-130	-51	29	36	58	101	92	38	0	-45	-123	-198	-231	-240	-258	-272	-261	-240	-229	-204	-148	-112	-132	-141	-121	-141	-186	-184	-159	-146	-137	-117	-83	-67	-83	-74	-33	-15	-13	-13	-67	-173	-209	-162	-126	-119	-121	-101	-60	-42	-42	-29
10:47:21.8430	599616152990213048	-13	-15	-15	9	31	-13	-101	-128	-112	-204	-371	-443	-463	-553	-636	-612	-569	-596	-612	-567	-528	-522	-492	-441	-414	-407	-380	-339	-321	-342	-355	-330	-299	-285	-258	-222	-218	-247	-254	-216	-200	-231	-119	357	936	1026	425	-375	-558	-150	2	-112	-67	-13	-99	-173	-180
10:47:22.3230	599616153427413918	-162	-130	-123	-256	-423	-407	-319	-319	-319	-258	-193	-139	-105	-94	-60	-33	-4	74	159	211	261	312	351	380	402	405	353	243	153	105	45	-13	-36	-47	-69	-74	-42	-11	-13	-24	-9	29	40	31	-20	-126	-166	-121	-117	-159	-184	-191	-175	-200	-267	-310	-342
10:47:22.7420	599616153864614784	-387	-409	-396	-366	-355	-382	-463	-537	-605	-762	-859	-783	-742	-758	-693	-609	-585	-576	-549	-546	-576	-564	-499	-454	-450	-434	-371	-297	-247	-222	-202	-177	-166	-168	-144	-123	-139	-137	-90	-51	-45	-42	-24	-6	-2	-4	29	252	756	1203	1080	308	-423	-337	76	51	-65
10:47:23.2180	599616154301846172	36	87	56	72	108	119	49	-121	-202	-144	-139	-166	-108	-31	-29	-81	-94	-29	24	42	81	126	144	180	263	342	366	339	333	348	306	220	141	45	-54	-105	-121	-153	-218	-261	-245	-227	-249	-272	-288	-337	-398	-389	-355	-362	-382	-375	-355	-348	-351	-326	-294
10:47:23.6130	599616154739047038	-306	-348	-382	-384	-373	-375	-373	-373	-486	-641	-618	-544	-587	-596	-510	-459	-454	-427	-384	-357	-337	-303	-247	-225	-283	-344	-310	-254	-247	-238	-211	-198	-189	-177	-198	-231	-238	-204	-162	-128	-103	-81	-72	-78	-74	-47	-13	2	4	40	99	123	119	117	112	108	117
10:47:24.0630	599616155176247908	130	137	114	81	90	74	-85	-281	-324	-297	-328	-270	119	720	974	526	-303	-666	-297	-29	-139	-137	-36	-42	-38	13	4	-11	29	58	67	121	157	87	4	29	83	83	74	105	135	128	130	182	238	256	290	364	420	436	441	423	375	297	211	144	72
10:47:24.4830	599616155613448774	-20	-74	-69	-67	-81	-81	-78	-159	-333	-423	-366	-346	-382	-355	-292	-265	-279	-299	-299	-297	-319	-335	-321	-330	-364	-380	-398	-436	-479	-504	-513	-513	-497	-459	-436	-447	-456	-427	-396	-391	-380	-409	-508	-546	-488	-438	-420	-420	-454	-479	-454	-427	-389	-335	-308	-285	-231
10:47:24.9620	599616156050649644	-186	-186	-207	-216	-218	-312	-488	-528	-456	-465	-477	-402	-342	-333	-333	-297	-49	501	954	801	29	-645	-508	-110	-175	-294	-193	-155	-171	-110	-63	-47	-11	-2	6	76	137	139	144	173	195	209	240	292	317	312	339	396	441	454	427	375	362	378	380	348	231
10:47:25.4080	599616156487850510	78	-11	-72	-150	-200	-207	-240	-297	-301	-261	-276	-425	-558	-508	-432	-432	-391	-328	-330	-333	-276	-222	-204	-204	-195	-171	-157	-139	-101	-72	-92	-130	-123	-96	-126	-177	-189	-175	-171	-191	-222	-247	-303	-353	-335	-306	-317	-335	-328	-310	-308	-299	-265	-249	-267	-263	-218
10:47:25.8030	599616156925066640	-198	-220	-292	-369	-360	-326	-353	-360	-400	-585	-693	-600	-542	-560	-519	-463	-450	-432	-375	-319	-297	-301	-270	-211	-184	-171	-135	-108	-110	-96	-54	-18	-15	-24	0	38	45	24	-13	-56	-67	-47	-13	18	18	2	9	31	40	58	85	87	81	110	166	209	213
10:47:26.2500	599616157362282764	191	175	166	159	162	157	47	-155	-236	-182	-213	-315	-351	-378	-447	-416	-90	483	830	542	-218	-706	-450	-123	-198	-227	-130	-126	-94	-9	-11	-33	24	74	72	81	110	126	121	99	94	101	38	-6	67	69	-51	-92	-63	-56	-33	24	74	92	76	72	83
10:47:26.6730	599616157799483634	36	-56	-137	-231	-407	-576	-598	-582	-686	-771	-706	-636	-634	-596	-517	-492	-616	-776	-650	-432	-513	-630	-537	-472	-488	-436	-373	-384	-389	-330	-272	-249	-247	-225	-155	-105	-114	-101	-47	-40	-74	-110	-153	-189	-202	-78	132	150	67	90	135	141	119	67	69	103	99
10:47:27.0930	599616158236653984	72	-36	-130	-157	-240	-204	-90	-164	-227	-243	-342	-429	-420	-407	-445	-180	222	162	-123	-306	-380	-315	-243	-225	-182	-114	72	222	65	-58	-11	-207	-342	18	274	108	-94	-166	-51	0	-191	-222	-36	11	-150	-254	-180	-110	-40	112	216	272	362	357	261	229	481
10:47:27.6280	599616158673885370	1082	1460	1077	49	-783	-652	-272	-360	-420	-344	-416	-537	-535	-456	-524	-688	-677	-587	-580	-585	-562	-522	-454	-384	-299	-175	-72	-74	-141	-69	110	146	121	195	243	220	209	186	121	51	0	-45	-114	-204	-270	-301	-315	-312	-290	-254	-236	-240	-213	-195	-274	-231	-29
10:47:27.9630	599616159111086236	-9	-90	-56	-33	-33	-15	-27	-4	67	92	58	36	6	-141	-328	-344	-272	-290	-328	-288	-247	-326	-324	-130	-108	-198	-229	-391	-472	-319	-220	-213	-159	-36	150	252	182	132	171	200	182	83	-27	27	128	49	-63	-85	-139	-245	-276	-128	-20	-254	-463	-371	-283
10:47:28.4430	599616159548317624	-99	202	96	-306	-486	-447	-432	-447	-378	-231	-141	-182	-231	-229	-265	-348	-420	-474	-513	-517	-515	-533	-468	-94	501	751	261	-612	-949	-553	-335	-535	-697	-744	-697	-612	-553	-479	-420	-402	-362	-297	-220	-87	6	-13	-27	22	58	40	0	-22	0	67	74	42	103
10:47:28.8880	599616159985518490	175	182	220	297	326	292	231	162	18	-256	-463	-486	-506	-585	-587	-508	-438	-396	-360	-315	-279	-254	-211	-175	-207	-238	-193	-141	-130	-123	-105	-90	-76	-60	-27	-4	-22	-29	9	42	45	47	63	72	69	81	112	121	101	99	130	144	130	130	141	144	126
10:47:29.3130	599616160422688842	92	94	110	92	94	87	-85	-337	-402	-366	-425	-477	-418	-357	-360	-366	-321	-267	-247	-225	-191	-191	-126	261	868	1086	551	-326	-618	-193	18	-159	-193	-132	-164	-155	-76	-45	-54	-42	-4	20	31	63	101	103	99	132	182	209	218	231	265	301	330	378	432
10:47:29.7580	599616160859920226	452	461	510	645	859	929	740	470	184	-103	-236	-267	-373	-479	-546	-663	-749	-724	-699	-706	-684	-627	-571	-551	-560	-533	-474	-447	-445	-425	-398	-387	-375	-342	-303	-297	-308	-290	-285	-333	-355	-315	-292	-299	-279	-229	-189	-182	-189	-159	-112	-99	-90	-56	-49	-85	-121
10:47:30.1830	599616161297121096	-63	47	47	-4	20	9	-162	-308	-265	-216	-247	-225	-162	-164	-218	-236	-193	-164	-166	-135	-90	-103	-155	-211	-256	-258	-265	-236	74	677	1048	744	-92	-650	-389	-15	-67	-92	40	85	76	105	132	150	166	141	108	139	195	209	191	207	256	263	229	261	348
10:47:30.6030	599616161734321962	375	380	429	483	513	504	492	445	270	130	141	101	-45	-132	-171	-252	-310	-306	-310	-330	-344	-371	-389	-389	-393	-407	-384	-308	-281	-351	-326	-191	-294	-445	-238	-58	-141	-150	-105	-132	-85	-15	-56	-101	-51	-6	-22	-90	-180	-195	-150	-123	-135	-243	-522	-686	-438
10:47:31.0530	599616162171522832	-263	-405	-447	-407	-461	-576	-724	-841	-810	-659	-621	-654	-681	-805	-780	-501	-391	-454	-441	-432	-436	-420	-499	-690	-722	-456	-198	-177	-245	-261	-249	-114	285	715	812	357	-483	-756	-254	-22	-204	-238	-164	-155	-141	-132	-137	-94	-47	-40	-38	-27	-13	15	63	108	130
10:47:31.4720	599616162608723698	137	173	222	213	182	220	240	110	-24	27	130	130	123	164	155	78	6	-38	-114	-207	-227	-186	-180	-220	-238	-200	-146	-137	-132	-90	-74	-94	-72	-24	-2	-20	-72	-90	-74	-126	-202	-153	-38	-20	-18	51	81	54	54	33	-54	-94	-56	-67	-150	-184	-81
10:47:31.9490	599616163045955086	36	33	15	58	24	-195	-436	-501	-515	-551	-551	-560	-596	-641	-695	-697	-562	-348	-285	-510	-753	-670	-411	-38	407	474	-49	-915	-1325	-913	-524	-441	-344	-351	-409	-398	-441	-450	-272	-96	-108	-153	-186	-396	-612	-560	-429	-409	-375	-274	-171	-114	-126	-112	-11	83	135
10:47:32.3430	599616163483155952	193	162	22	-15	85	193	99	-249	-492	-533	-528	-477	-445	-454	-425	-420	-526	-627	-621	-528	-357	-407	-648	-596	-294	-74	-36	-85	-182	-317	-288	-128	-47	9	119	173	144	141	157	155	173	180	148	101	18	-63	-112	-168	-162	-108	-108	-105	-58	-51	-92	-83	-45
10:47:32.7930	599616163920356822	-42	-9	108	128	-94	-308	-335	-315	-285	-220	-240	-279	-33	522	985	857	67	-774	-828	-366	-357	-609	-607	-558	-616	-659	-648	-625	-605	-562	-508	-486	-468	-425	-373	-342	-312	-249	-193	-184	-168	-99	-13	38	69	119	186	238	279	319	335	279	186	108	33	-60	-157
10:47:33.2120	599616164357557688	-249	-317	-333	-310	-276	-310	-490	-623	-551	-479	-490	-454	-396	-382	-373	-328	-267	-252	-276	-326	-380	-378	-342	-319	-299	-274	-256	-216	-159	-144	-155	-141	-153	-198	-198	-153	-144	-148	-121	-65	-27	-24	-31	-6	33	47	58	90	146	267	443	528	506	450	400	425	463
10:47:33.6920	599616164794758558	420	405	474	441	162	-119	-9	211	119	51	155	137	38	20	31	42	121	184	150	173	216	146	123	108	-20	2	148	-168	-747	-558	47	-27	-294	-191	-177	-310	-220	-22	-36	-182	-227	-126	-67	-121	-128	-128	-200	-177	-42	9	-33	-78	-110	-211	-441	-450	-83
10:47:34.1090	599616165231959424	157	85	-101	-150	108	261	130	78	63	-171	-364	-288	-184	-193	-220	-202	-121	-78	-112	-103	-139	-189	-38	60	-24	-168	-497	-573	-153	31	-22	92	126	-9	-65	306	1044	1401	1021	202	-389	-216	103	-18	-177	-344	-468	-182	60	-33	-164	-378	-324	173	290	94	195
10:47:34.5630	599616165669190812	312	312	335	195	-56	-76	2	-15	-15	-83	-202	-301	-423	-380	-227	-195	-153	83	486	713	488	105	-139	-166	-42	-92	-344	-391	-207	-182	-299	-333	-335	-362	-378	-373	-348	-319	-330	-353	-326	-276	-263	-256	-312	-555	-893	-1071	-1014	-949	-956	-915	-828	-780	-780	-742	-679
10:47:34.9830	599616166106361160	-659	-641	-576	-492	-351	31	420	373	153	42	-40	-54	-49	-85	-76	-65	-92	-101	-83	-60	-45	-27	15	49	31	22	65	114	121	90	56	56	58	54	81	101	76	74	119	141	128	121	139	150	146	157	180	180	144	130	159	180	139	-4	-236	-474	-594
10:47:35.4330	599616166543592548	-506	-384	-391	-416	-380	-346	-423	-560	-510	-274	-117	-96	-67	-27	-74	-141	-121	-78	-94	-132	-155	-177	-209	-213	-191	-204	-256	-274	-249	-243	-256	-238	-209	-227	-267	-308	-407	-472	-387	-310	-281	6	596	972	627	-290	-857	-533	-126	-168	-162	-67	-159	-155	4	24	-24
10:47:35.8530	599616166980793414	4	40	74	119	78	-42	-42	27	-108	-292	-292	-276	-348	-326	-216	-157	-128	-69	-9	42	101	173	236	245	200	144	94	20	-69	-128	-162	-195	-207	-171	-130	-123	-130	-103	-56	-38	-36	-20	-11	-31	-56	-40	-4	-11	-36	6	90	123	132	162	148	96	83
10:47:36.3290	599616167417994284	148	182	144	191	198	18	-182	-272	-357	-697	-983	-711	-564	-798	-596	-510	-733	-456	-281	-558	-625	-508	-488	-488	-472	-445	-414	-488	-558	-591	-729	-544	-191	-270	-342	-189	-184	-182	-166	-418	-621	-465	-258	-204	-193	-20	173	128	47	112	164	67	-13	24	27	-45	-15
10:47:36.7230	599616167855195150	29	-51	11	126	65	67	155	74	-155	-249	-261	-330	-220	-54	-85	-22	339	688	537	-193	-720	-429	-54	-166	-231	-85	-119	-220	-144	-132	-355	-378	-191	-297	-355	-128	-42	-99	-58	-11	-42	45	315	436	344	279	267	337	470	497	490	544	596	636	634	555	468
10:47:37.2030	599616168292396020	382	218	15	-99	-132	-252	-445	-474	-396	-411	-445	-463	-544	-614	-603	-506	-348	-222	-193	-171	-128	-128	-114	-38	-2	-24	-38	-45	-67	-81	-92	-144	-240	-306	-308	-274	-247	-220	-191	-182	-195	-211	-240	-227	-96	-20	-42	-18	13	18	58	90	74	72	114	148	108
10:47:37.5930	599616168729596886	-63	-220	-200	-90	96	263	211	135	141	96	-11	-193	-216	290	929	942	238	-612	-855	-517	-326	-265	-121	-110	-162	-164	-321	-524	-463	-276	-148	-119	-184	-209	-213	-281	-317	-285	-267	-299	-378	-398	-324	-274	-202	-128	-216	-303	-191	-60	-27	-2	6	-56	-173	-261	-297
10:47:38.0430	599616169166797756	-324	-353	-371	-378	-443	-609	-688	-596	-558	-598	-553	-483	-510	-569	-580	-594	-614	-553	-420	-294	-234	-236	-225	-191	-180	-198	-218	-195	-117	-60	-42	-4	-6	-58	-38	29	27	18	47	40	9	20	58	69	56	47	54	49	9	-58	-128	-153	-132	-101	-65	-51	-74
10:47:38.4910	599616169603968104	-90	-87	-96	-121	-130	-135	-258	-463	-488	-382	-369	-391	-369	-312	-15	618	1091	823	-67	-695	-425	-20	-137	-256	-150	-121	-146	-92	-31	-20	-22	0	47	85	103	123	146	162	175	202	247	272	267	290	351	398	425	474	524	546	560	589	609	587	488	324	184
10:47:38.9730	599616170041199492	72	-87	-231	-310	-423	-531	-501	-470	-594	-697	-630	-558	-560	-517	-441	-414	-411	-366	-306	-274	-267	-258	-225	-191	-180	-155	-121	-126	-144	-146	-168	-202	-236	-274	-281	-267	-265	-270	-301	-366	-420	-436	-427	-429	-445	-441	-423	-420	-411	-373	-351	-369	-371	-328	-301	-310	-303
10:47:39.3320	599616170478400358	-288	-283	-285	-283	-288	-335	-366	-288	-186	-193	-263	-270	-249	-335	-531	-630	-544	-461	-443	-369	-297	-308	-288	-204	-180	-193	-159	-112	-101	-105	-103	-83	-45	-15	9	54	74	27	2	27	47	63	69	69	85	74	63	60	45	67	121	153	184	202	189	168	42
10:47:39.8120	599616170915585970	-168	-177	-33	-87	-225	-112	58	11	-58	-13	-15	-54	-65	-166	-456	-668	-571	-459	-441	-132	472	798	576	-114	-776	-614	-114	-9	24	103	87	-31	-294	-445	-319	-231	-247	-166	-13	207	231	4	-9	33	9	321	587	391	389	695	697	580	668	733	708	722	749
10:47:40.2030	599616171352802094	729	679	636	585	492	357	191	-9	-200	-315	-398	-524	-609	-596	-589	-607	-596	-612	-668	-704	-713	-699	-659	-618	-607	-598	-598	-654	-708	-720	-807	-870	-704	-576	-609	-535	-452	-477	-427	-328	-312	-321	-297	-292	-315	-339	-409	-526	-567	-519	-465	-461	-492	-483	-328	-22	144
10:47:40.7100	599616171790002964	74	60	74	-94	-243	-198	-157	-186	-175	-146	-146	-141	-108	-65	-51	-58	-45	-13	0	-11	-27	-18	4	-2	-105	-303	-432	-416	-364	-319	-279	-243	-204	-186	-195	-209	-256	-306	-312	-306	-281	-236	-209	-186	-148	-130	-130	-103	-49	-9	9	38	150	303	258	65	49
10:47:41.1030	599616172227203830	119	67	87	353	535	369	204	238	177	-45	-157	-162	-290	-470	-544	-659	-801	-578	27	407	101	-702	-1176	-873	-564	-670	-657	-506	-504	-522	-456	-411	-402	-396	-405	-405	-387	-319	-40	324	371	128	144	506	582	382	382	425	310	252	384	515	517	531	580	573	535
10:47:41.5530	599616172664404700	438	157	-193	-364	-387	-409	-495	-598	-650	-684	-726	-717	-643	-562	-528	-510	-463	-393	-342	-297	-265	-270	-263	-216	-166	-137	-135	-132	-92	-42	-36	-31	-4	0	-4	29	74	101	117	110	72	22	-9	4	15	-15	-27	9	33	29	33	49	67	67	11	-40	-24
10:47:42.0030	599616173101636084	-31	-56	-13	33	24	11	-2	-78	-258	-407	-402	-416	-504	-501	-459	-488	-533	-513	-483	-477	-445	-425	-418	-384	-357	-326	-256	-211	-227	-236	-231	-240	-186	-83	-40	-29	-13	-4	18	45	54	65	65	51	60	105	150	157	130	119	135	119	90	99	103	65	60
10:47:42.4490	599616173538821696	99	114	94	78	90	83	22	-31	-40	-49	119	589	873	432	-436	-785	-389	-144	-267	-213	-54	-87	-173	-177	-177	-184	-159	-130	-103	-69	-31	36	105	103	65	81	132	191	222	249	355	416	371	384	481	504	481	510	531	513	486	429	324	211	112	9	-103
10:47:42.8990	599616173976007302	-177	-184	-162	-157	-162	-153	-157	-261	-429	-470	-418	-438	-398	-279	-321	-463	-456	-387	-409	-432	-378	-317	-276	-252	-256	-265	-279	-371	-528	-519	-292	-204	-279	-189	-56	-56	-83	-78	-51	-15	18	33	22	-24	-155	-200	-56	-22	-42	-22	-191	-342	-243	-141	-144	-63	69
10:47:43.2930	599616174413238690	63	-20	4	22	83	265	258	139	162	42	-247	-319	-288	-418	-495	-438	-436	-486	-501	-501	-542	-630	-650	-693	-724	-159	618	456	-549	-1203	-897	-465	-578	-675	-506	-445	-513	-614	-729	-720	-627	-587	-519	-414	-373	-382	-339	-267	-238	-218	-162	-117	-103	-65	11	78	114
10:47:43.7120	599616174850439556	150	209	281	328	355	382	333	126	-76	-54	47	-22	-186	-274	-306	-337	-317	-270	-270	-274	-234	-182	-153	-139	-130	-112	-94	-85	-63	-36	-45	-83	-139	-193	-218	-272	-355	-371	-335	-317	-281	-252	-265	-258	-227	-249	-285	-267	-236	-222	-198	-159	-121	-105	-112	-96	-40
10:47:44.1920	599616175287609908	9	36	45	4	-119	-288	-351	-276	-249	-297	-276	-225	-225	-234	-209	-186	-180	-159	-112	-90	-132	-173	-144	-108	-128	-103	198	783	1172	886	33	-618	-441	-38	-49	-103	-15	0	0	47	42	-31	-67	-38	-24	-45	-20	31	45	60	103	121	99	94	139	175	184
10:47:44.5830	599616175724841292	213	267	321	366	418	450	427	378	344	252	11	-281	-425	-488	-616	-704	-717	-762	-810	-785	-735	-708	-686	-661	-641	-618	-616	-639	-634	-609	-609	-582	-513	-483	-477	-441	-409	-400	-384	-344	-297	-283	-297	-276	-222	-198	-195	-173	-150	-180	-247	-258	-209	-195	-220	-202	-146
10:47:45.1190	599616176162026904	-117	-114	-135	-202	-337	-461	-447	-378	-396	-438	-420	-373	-344	-315	-279	-254	-231	-191	-148	-128	-103	153	771	1278	1086	258	-472	-427	-47	-13	-65	29	54	40	94	110	72	56	40	4	-4	36	83	101	103	119	150	171	184	227	292	306	270	337	486	569	618
10:47:45.4530	599616176599212510	668	684	630	522	432	317	121	-42	-117	-200	-299	-321	-294	-346	-488	-564	-519	-495	-528	-504	-450	-429	-384	-312	-285	-281	-249	-204	-168	-155	-159	-139	-99	-81	-72	-47	-42	-65	-69	-42	-13	-22	-60	-60	-45	-72	-85	-51	-42	-69	-56	-13	2	-9	-13	2	15
10:47:45.9330	599616177036443898	9	-9	-56	-202	-407	-477	-445	-492	-564	-589	-636	-720	-742	-690	-663	-688	-713	-717	-706	-681	-659	-630	-598	-573	-542	-490	-456	-463	-445	-384	-346	-339	-319	-290	-274	-258	-225	-182	-164	-173	-162	-119	-92	-90	-72	-51	-49	-45	-45	-72	-112	-128	-110	-76	-56	-54	-40
10:47:46.3230	599616177473614246	-29	-42	-45	-9	24	18	-9	2	2	-139	-315	-317	-272	-301	-283	-209	-173	-177	-171	-144	-168	-231	-216	-191	-279	-339	-283	-234	-234	-229	-207	-175	-144	-126	-94	-54	-58	-90	-20	344	990	1413	1107	204	-414	-186	141	20	-60	45	83	81	103	101	94	105	94
10:47:46.8030	599616177910845634	78	114	99	-76	-236	-191	-119	-132	-110	-49	-13	22	83	155	204	209	204	240	285	301	299	261	171	56	-69	-189	-310	-434	-517	-603	-715	-771	-771	-765	-749	-711	-648	-594	-573	-564	-519	-465	-445	-416	-362	-335	-337	-310	-261	-229	-229	-227	-195	-162	-150	-132	-108
10:47:47.2490	599616178348015984	-112	-123	-96	-51	-33	-56	-114	-166	-261	-434	-497	-429	-427	-447	-387	-333	-330	-324	-299	-270	-247	-220	-173	-144	-155	-150	-103	-65	-58	-51	-38	-24	-18	0	40	60	38	13	-29	-101	-121	-94	-81	-72	-51	-18	22	40	24	31	76	99	90	103	119	112	117
10:47:47.6730	599616178785247370	153	182	177	155	155	150	27	-177	-245	-209	-231	-243	-191	-198	-281	-315	-274	-267	-306	-288	-220	-202	-243	-283	-303	-342	-418	-463	-445	-427	-427	-411	-387	-391	-400	-364	-324	-337	-324	-2	652	1082	780	-67	-630	-432	-245	-461	-499	-364	-378	-384	-303	-270	-254	-186	-137
10:47:48.0930	599616179222417718	-141	-128	-69	-22	-2	18	45	27	-108	-238	-191	-114	-126	-87	24	99	141	207	272	319	342	317	276	222	112	2	-54	-110	-168	-184	-189	-213	-218	-175	-130	-130	-146	-119	-72	-58	-45	-13	-2	-6	6	38	63	63	51	60	85	81	58	20	-22	-74	-144
10:47:48.5730	599616179659649106	-157	-121	-128	-144	-114	-157	-342	-454	-396	-373	-402	-353	-306	-342	-375	-351	-326	-333	-369	-380	-396	-454	-483	-443	-414	-418	-420	-432	-479	-510	-483	-441	-427	-434	-411	-360	-324	-312	-299	-272	-245	-229	-202	-155	-130	-144	-130	-83	-58	-56	-40	-22	-20	-15	9	47	56
10:47:48.9630	599616180096819456	33	40	63	27	-27	-22	-11	-65	-128	-119	-96	-225	-420	-425	-335	-342	-344	-283	-252	-252	-213	-162	-132	-117	-94	-49	-9	-2	0	18	11	-18	-9	29	47	15	-24	-18	13	18	24	29	92	459	1066	1318	843	-24	-409	-47	157	-22	-6	108	51	20	92
10:47:49.4380	599616180534020324	130	126	135	146	130	11	-157	-173	-92	-87	-110	-92	-54	-24	4	33	11	-47	-20	81	139	159	209	279	315	310	285	227	132	29	-40	-81	-135	-193	-204	-171	-157	-153	-126	-105	-108	-105	-114	-146	-166	-166	-148	-112	-94	-85	-56	-45	-60	-49	-6	18	0
10:47:49.8330	599616180971221192	-18	9	36	36	45	65	-2	-198	-335	-294	-249	-285	-285	-243	-225	-216	-184	-189	-258	-283	-229	-184	-180	-180	-220	-303	-337	-303	-265	-247	-270	-310	-299	-261	-261	-288	-317	-344	-380	-418	-411	-398	-429	-438	-396	-375	-382	-373	-357	-375	-402	-380	-330	-319	-328	-308	-265
10:47:50.2830	599616181408422060	-240	-231	-213	-209	-301	-481	-551	-486	-479	-517	-470	-391	-360	-324	-270	-245	-247	-234	-198	-171	-177	-191	-155	-96	-92	-119	-119	-103	-105	-103	-78	83	546	1037	985	292	-495	-607	-175	-76	-240	-166	-56	-74	-74	-36	-11	13	38	69	105	108	103	139	189	216	193
10:47:50.7030	599616181845622926	144	137	173	202	240	272	171	6	15	123	155	168	216	240	227	202	166	90	-27	-117	-144	-162	-191	-198	-184	-173	-164	-132	-87	-69	-83	-94	-112	-132	-130	-110	-96	-92	-81	-51	-11	-6	-72	-148	-139	-112	-119	-101	-76	-85	-78	-36	-4	-11	-29	-11	22
10:47:51.1830	599616182282839057	27	31	51	9	-171	-333	-335	-337	-414	-414	-346	-315	-306	-263	-218	-213	-209	-173	-128	-105	-103	-99	-76	-63	-65	-29	22	29	18	51	54	-11	-54	-49	-65	-132	-225	-220	-128	-225	-492	-463	-180	-193	-364	-375	-303	130	756	859	202	-787	-1086	-551	-272	-438	-384
10:47:51.6290	599616182720024662	-258	-263	-130	-69	-225	-384	-461	-405	-240	-191	-337	-306	-139	-211	-186	-38	-198	-328	-83	13	-128	9	209	137	103	191	78	-58	90	186	42	-54	-22	-42	-146	-227	-294	-330	-249	-123	6	-15	-270	-330	-173	-164	-231	-211	-177	-146	-114	-153	-128	4	22	15	92
10:47:52.0530	599616183157225532	-24	-173	-51	-6	-186	-193	-63	-209	-510	-587	-501	-490	-488	-407	-360	-375	-360	-292	-245	-220	-204	-243	-301	-297	-252	-211	-189	-189	-159	-90	-42	-36	-31	-27	-38	-47	-33	-2	6	-22	-31	4	20	6	18	33	9	-2	207	747	1221	1071	294	-434	-432	-58	-31
10:47:52.4730	599616183594426398	-144	-90	-47	-42	15	96	211	330	319	195	110	103	-27	-220	-315	-398	-357	-261	-288	-236	-74	-11	-42	-22	47	94	162	252	283	245	202	180	128	24	-92	-209	-312	-373	-384	-407	-468	-513	-542	-564	-567	-551	-519	-501	-517	-515	-465	-432	-429	-425	-405	-389	-378
10:47:52.9290	599616184031627268	-353	-312	-285	-308	-353	-346	-382	-564	-690	-630	-585	-598	-544	-461	-441	-447	-409	-348	-315	-292	-267	-276	-281	-195	-67	4	24	51	56	24	15	33	18	-112	-216	-218	-312	-375	-301	-258	-245	-135	51	173	247	513	1012	1329	1017	130	-533	-306	144	137	99	216	234
10:47:53.3430	599616184468828134	173	150	146	103	105	193	202	99	-29	-186	-270	-263	-297	-344	-276	-126	-92	-189	-184	-76	-6	54	150	216	234	274	355	402	364	231	51	-33	-72	-164	-213	-312	-432	-267	-76	-204	-328	-292	-321	-384	-364	-276	-175	-171	-258	-276	-195	-144	-137	-112	-92	-105	-105
10:47:53.8190	599616184906029004	-49	13	4	-33	-36	-56	-211	-405	-427	-371	-382	-378	-306	-252	-243	-227	-182	-144	-155	-182	-175	-189	-238	-263	-247	-231	-247	-276	-290	-308	-337	-353	-351	-362	-299	33	596	841	299	-747	-1284	-891	-524	-589	-564	-479	-501	-459	-357	-317	-333	-357	-344	-299	-272	-236	-186
10:47:54.2120	599616185343229870	-175	-164	-105	-47	-18	6	42	31	-103	-213	-141	-54	-47	4	94	126	108	83	31	-56	-137	-193	-218	-252	-312	-357	-382	-389	-362	-317	-290	-272	-245	-195	-146	-135	-141	-110	-65	-51	-38	-4	2	-13	-2	31	54	31	-58	-144	-141	-117	-110	-83	-69	-81	-69
10:47:54.6930	599616185780430740	-58	-87	-105	-92	-72	-130	-317	-434	-391	-389	-423	-366	-290	-272	-263	-236	-202	-177	-153	-112	-92	-81	191	828	1287	999	101	-567	-373	27	-6	-60	29	-4	-51	15	63	38	4	-18	-24	-20	-15	-24	-63	-117	-155	-153	-137	-135	-119	-87	-63	-31	20	92	148
10:47:55.0830	599616186217631606	137	74	63	83	45	-27	-117	-240	-360	-423	-470	-645	-848	-830	-724	-726	-702	-616	-582	-571	-515	-441	-396	-380	-360	-310	-265	-249	-218	-173	-162	-173	-155	-112	-92	-108	-112	-81	-40	-27	-47	-67	-78	-87	-63	-18	0	-6	0	22	31	38	67	94	90	96	139
10:47:55.5620	599616186654832476	173	164	137	123	85	-76	-261	-263	-193	-240	-324	-326	-285	-279	-292	-312	-351	-357	-121	504	1104	1037	231	-569	-540	-110	-103	-220	-128	-85	-99	-38	0	-22	-4	56	76	81	112	105	45	27	67	99	78	31	4	-33	-105	-101	-38	-15	-4	47	110	144	132
10:47:55.9530	599616187092033342	90	33	-45	-150	-240	-303	-387	-465	-470	-436	-504	-679	-744	-659	-618	-618	-553	-515	-607	-672	-600	-528	-542	-544	-499	-452	-423	-391	-337	-297	-301	-292	-234	-184	-177	-171	-144	-119	-108	-83	-42	-22	-33	-22	18	42	45	49	60	51	38	54	92	103	65	24	36
10:47:56.4020	599616187529234212	58	54	56	60	-38	-227	-303	-236	-227	-263	-225	-166	-153	-137	-96	-81	-85	-69	-29	6	6	-4	15	47	56	60	49	-45	-146	-168	-177	-184	-175	-171	-144	-117	-141	-180	-166	-162	-189	-202	-216	-249	-310	-362	-357	-342	-353	-339	-315	-330	-342	-306	-267	-263	-263
10:47:56.8220	599616187966435078	-254	-234	-220	-211	-220	-299	-477	-630	-598	-519	-519	-508	-452	-414	-393	-357	-297	-258	-263	-247	-189	-148	-141	-121	-90	-78	-69	-38	4	22	2	9	56	81	76	51	-60	-207	-218	-137	-83	-65	-67	-65	-38	-20	-13	-2	9	2	11	54	87	78	65	90	117
10:47:57.3020	599616188403635948	101	81	270	798	1262	1093	294	-531	-632	-249	-207	-348	-294	-231	-231	-211	-184	-150	-92	-54	-45	-27	11	40	60	90	92	42	22	67	108	99	65	54	49	33	51	110	153	155	159	193	211	164	4	-220	-366	-434	-490	-513	-517	-546	-540	-479	-441	-425	-393
10:47:57.6930	599616188840836814	-357	-337	-312	-272	-222	-204	-218	-202	-162	-238	-427	-501	-445	-436	-441	-375	-312	-308	-337	-357	-351	-326	-299	-267	-240	-229	-204	-153	-110	-103	-108	-76	-36	-29	-11	27	36	22	45	87	110	103	101	123	144	139	148	173	166	146	148	128	69	2	-85	-126	-99
10:47:58.1990	599616189278037684	-87	-74	-60	-177	-373	-405	-319	-312	-321	-279	-243	-234	-211	-189	-211	-252	-247	-209	-204	-247	-285	-315	-362	-387	-375	-373	-427	-497	-481	-420	-407	-411	-384	-351	-330	-312	-290	-254	-236	-247	-234	-184	-159	-150	-126	-105	-108	-99	-60	-24	-27	-36	0	58	74	74	96
10:47:58.5920	599616189715238550	99	56	13	13	47	56	-20	-99	-99	-166	-290	-315	-312	-348	-299	81	735	1055	621	-243	-652	-292	-15	-162	-211	-121	-96	-72	-15	-2	6	58	103	101	85	87	108	195	270	213	177	195	182	207	265	297	344	407	425	443	510	569	582	580	571	533	463
10:47:59.0420	599616190152439420	378	297	202	90	20	6	-74	-288	-468	-515	-549	-578	-528	-481	-542	-648	-641	-567	-517	-443	-405	-472	-573	-659	-648	-524	-438	-414	-357	-328	-360	-308	-184	-171	-245	-267	-265	-297	-312	-303	-310	-346	-373	-366	-328	-283	-252	-245	-247	-229	-209	-195	-148	-67	-2	22	4
10:47:59.4620	599616190589640286	-20	-20	6	40	63	65	72	76	-20	-213	-270	-202	-220	-243	-182	-175	-238	-243	-198	-177	-171	-155	-135	-184	-292	-299	-211	-162	-144	-94	-45	-45	-63	-42	2	15	-4	-2	38	74	90	105	119	130	162	204	225	216	186	173	198	222	229	245	249	225	207
10:47:59.9120	599616191026810638	213	220	195	164	171	162	20	-171	-204	-175	-220	-247	-207	-29	443	972	1005	344	-436	-499	-85	-56	-229	-186	-132	-148	-130	-99	-69	-38	-22	-9	-49	-155	-186	-119	-69	-60	-51	-20	24	58	85	137	189	207	227	294	362	398	418	434	438	420	364	263	114
10:48:00.3890	599616191464011504	-47	-153	-189	-216	-254	-274	-274	-335	-504	-614	-551	-504	-535	-499	-418	-384	-373	-333	-301	-290	-272	-229	-186	-180	-193	-175	-128	-114	-117	-110	-150	-216	-216	-166	-137	-144	-153	-126	-92	-85	-108	-173	-256	-274	-240	-204	-175	-173	-180	-153	-139	-177	-195	-173	-184	-225	-254
10:48:00.7830	599616191901212374	-267	-301	-364	-402	-400	-427	-461	-434	-416	-549	-749	-769	-677	-670	-686	-639	-594	-576	-549	-492	-452	-454	-443	-384	-337	-324	-312	-285	-245	-209	-175	-130	-110	-137	-146	-112	-85	-101	-132	-135	-119	-112	-90	-42	-29	-72	-58	218	783	1174	886	36	-594	-420	-36	-72	-164
10:48:01.2030	599616192338413240	-92	-65	-58	-15	9	22	15	-105	-283	-297	-213	-227	-285	-285	-240	-209	-182	-132	-96	-78	-33	45	114	146	177	240	306	339	369	393	364	288	220	164	78	-20	-90	-110	-119	-128	-110	-81	-90	-103	-103	-123	-146	-141	-128	-110	-92	-76	-45	-15	-33	-47	-9
10:48:03.0810	599616192775598852	11	-49	-130	-141	-164	-328	-488	-452	-393	-429	-416	-337	-301	-294	-263	-234	-220	-202	-173	-164	-216	-263	-234	-182	-166	-157	-128	-108	-108	-101	-65	-24	-24	-42	-27	9	20	22	40	47	33	38	72	96	90	67	74	96	96	101	137	137	87	67	96	99	60
10:48:03.0960	599616193212814976	33	42	60	56	60	69	-45	-283	-405	-418	-535	-551	-150	418	513	-94	-904	-1116	-731	-571	-688	-627	-542	-576	-555	-479	-461	-481	-459	-418	-416	-407	-351	-308	-297	-281	-245	-209	-177	-137	-74	-27	-6	31	110	175	213	258	308	330	335	342	335	263	141	38	-18
10:48:03.1050	599616193649985328	-74	-144	-222	-297	-418	-594	-632	-540	-524	-544	-483	-411	-384	-355	-303	-279	-272	-252	-263	-335	-380	-360	-324	-288	-263	-236	-200	-184	-184	-155	-108	-81	-85	-105	-130	-150	-150	-123	-94	-94	-99	-65	-20	-4	-11	-6	20	36	38	60	92	81	60	85	117	121	126
10:48:03.1140	599616194087186194	150	168	173	175	182	146	-33	-240	-265	-256	-335	-353	-299	-276	-270	-229	-180	-173	-130	211	823	1116	679	-177	-609	-281	9	-132	-234	-209	-234	-229	-162	-126	-117	-83	-56	-51	-31	13	58	51	13	24	81	103	117	162	189	189	213	276	333	360	371	405	450
10:48:03.4270	599616194524417582	504	636	702	459	162	78	-63	-369	-405	-168	-195	-432	-447	-317	-375	-501	-501	-474	-454	-472	-463	-378	-364	-418	-389	-315	-443	-729	-765	-510	-330	-274	-130	-31	-83	-171	-294	-382	-409	-501	-589	-594	-564	-533	-495	-443	-360	-267	-220	-81	78	-2	-204	-333	-301	-159	-110
10:48:03.8160	599616194961587930	-99	2	-45	-153	-42	-56	-225	-153	24	-121	-459	-387	168	677	686	81	-666	-787	-407	-261	-324	-261	-150	-22	72	-6	-51	-54	-168	-137	-2	9	29	130	236	249	159	137	171	139	123	159	195	249	319	335	303	355	540	636	490	423	477	218	-130	-168	-200
10:48:04.2950	599616195398788800	-339	-337	-310	-481	-679	-654	-555	-558	-560	-510	-472	-456	-423	-366	-330	-335	-319	-258	-218	-209	-193	-166	-153	-144	-117	-76	-60	-74	-67	-24	-9	-40	-60	-49	-45	-45	-20	13	-4	-63	-76	-47	-49	-87	-128	-171	-216	-243	-222	-195	-227	-274	-279	-267	-321	-411	-429
10:48:04.7710	599616195835989666	-409	-420	-409	-355	-310	-308	-346	-364	-400	-576	-614	-144	468	551	-22	-783	-969	-560	-369	-463	-402	-310	-303	-261	-222	-222	-177	-110	-85	-78	-51	-13	11	36	92	164	184	168	166	171	177	180	177	254	364	375	357	427	544	627	600	477	337	220	135	101	168
10:48:05.1630	599616196273190536	267	249	155	99	85	69	-11	-126	-150	-114	-184	-364	-436	-409	-501	-645	-648	-567	-535	-515	-454	-414	-396	-355	-301	-270	-272	-276	-245	-195	-177	-159	-117	-99	-108	-101	-74	-63	-72	-76	-51	-20	-11	9	33	-6	-72	-60	-4	9	-4	-2	22	42	45	63	92
10:48:05.5830	599616196710391402	85	65	76	67	20	-13	-22	-47	-189	-398	-465	-461	-528	-553	-513	-564	-645	-607	-555	-555	-555	-519	-492	-582	-630	-463	-360	-391	-303	-227	-288	-272	-182	-191	-229	-173	96	632	958	558	-333	-823	-517	-182	-245	-222	-63	-42	-76	-45	2	29	33	4	-13	0	11
10:48:06.0330	599616197147561754	38	76	83	74	99	110	-15	-184	-177	-110	-110	-49	94	249	393	447	396	360	312	283	317	234	60	-72	-234	-384	-434	-470	-522	-515	-477	-432	-375	-362	-355	-285	-211	-132	-31	-51	-121	-110	-146	-157	-87	-108	-144	-85	-31	-33	-56	-65	-49	-40	-29	11	40
10:48:06.4530	599616197584793138	22	11	13	-31	-85	-81	-63	-132	-303	-427	-427	-447	-501	-472	-409	-398	-366	-256	-180	-191	-148	-22	51	90	202	328	360	339	243	-101	-519	-641	-576	-636	-771	-803	-758	-711	-661	-618	-573	-504	-436	-407	-387	-324	-285	-297	-267	-173	-99	-96	-105	-85	-85	-101	-60
10:48:06.9290	599616198021963490	2	18	9	49	132	112	-38	-96	-33	-40	-114	-128	-105	-112	-150	-216	-254	-222	-222	-227	-175	-162	-157	-94	-47	-38	-29	-29	-33	-20	-2	24	42	27	27	63	92	101	110	114	112	105	67	-15	-63	-58	-42	-18	13	49	101	135	139	162	229	249	139
10:48:07.3230	599616198459194874	0	-6	36	-13	-81	-90	-119	-288	-486	-517	-504	-594	-648	-591	-549	-546	-528	-537	-589	-603	-571	-540	-522	-510	-497	-461	-418	-375	-317	-272	-272	-308	-294	-29	589	1116	983	182	-594	-571	-144	-85	-186	-114	-15	31	22	-18	15	72	31	-15	-47	-112	-148	-117	-58
10:48:07.7730	599616198896365226	-11	13	38	81	81	-54	-186	-121	-22	-72	-90	20	108	137	177	202	175	126	72	9	-72	-162	-193	-177	-195	-231	-236	-243	-263	-245	-186	-137	-130	-137	-101	-49	-33	-22	6	27	22	24	45	72	74	51	54	76	76	81	105	112	96	114	155	168	144
10:48:08.1930	599616199333566094	83	24	-18	-101	-186	-193	-263	-463	-558	-515	-555	-630	-605	-558	-560	-544	-495	-483	-519	-535	-499	-441	-391	-389	-432	-445	-290	216	864	999	315	-609	-789	-346	-261	-414	-306	-198	-231	-218	-121	-51	-58	-69	-40	-18	-4	18	36	49	65	96	141	164	168	198	258
10:48:08.6430	599616199770766962	306	342	396	432	362	204	130	132	76	-6	-51	-114	-254	-405	-461	-472	-501	-486	-425	-384	-375	-362	-301	-220	-204	-236	-204	-168	-193	-173	-101	-65	-69	-60	-29	2	15	24	9	-60	-114	-87	-47	-42	-36	-18	0	9	13	42	69	49	29	65	112	144	162
10:48:09.1150	599616200207967828	177	200	186	130	126	110	-58	-240	-222	-168	-225	-245	-200	-191	-216	-211	-168	-146	-157	-144	-130	-204	-281	-258	-222	-222	-216	-218	-229	-240	-263	-270	-270	-319	-375	-407	-438	-461	-463	-450	-423	-425	-441	-414	-366	-353	-373	-391	-387	-382	-366	-319	-283	-288	-292	-258	-220
10:48:09.5430	599616200645168698	-213	-195	-162	-220	-409	-515	-452	-414	-459	-438	-353	-294	-267	-236	-220	-231	-225	-189	-155	-139	-146	-186	-213	-198	-173	-141	-110	-141	-141	150	724	1104	834	-31	-668	-445	-96	-189	-238	-141	-137	-119	-42	-20	-18	13	40	51	83	130	150	144	150	153	121	114	150
10:48:09.9630	599616201082369564	175	191	222	276	342	382	393	425	481	429	252	157	164	108	13	-33	-78	-171	-252	-265	-249	-256	-247	-211	-198	-200	-173	-132	-144	-207	-225	-182	-148	-141	-117	-78	-74	-90	-94	-144	-220	-238	-218	-198	-180	-166	-135	-101	-108	-126	-99	-60	-54	-67	-60	-40	-31
10:48:10.4130	599616201519570434	-31	-4	18	-18	-67	-54	-42	-175	-369	-393	-330	-337	-328	-258	-225	-240	-222	-164	-132	-128	-112	-90	-78	-72	-47	-9	2	-15	-9	31	47	42	51	67	78	76	47	33	38	18	15	51	63	54	72	83	56	-4	-81	-105	-101	-119	-108	-65	-54	-51	-22
10:48:10.8630	599616201956771300	-15	-33	-20	22	40	24	9	20	-20	-200	-369	-375	-348	-366	-348	-306	-288	-285	-281	-258	-231	-216	-182	-150	-180	-229	-220	-184	-207	-261	-130	366	891	819	47	-742	-774	-393	-380	-499	-423	-389	-450	-477	-472	-450	-400	-364	-366	-346	-283	-240	-225	-198	-162	-164	-213
10:48:11.3390	599616202393972170	-222	-157	-112	-119	-78	9	51	67	112	153	87	-63	-123	-74	-99	-202	-261	-310	-407	-474	-474	-477	-490	-463	-407	-357	-339	-335	-292	-238	-216	-195	-153	-135	-139	-112	-63	-36	-38	-40	-15	9	11	27	56	49	31	51	87	99	65	22	27	47	42	60	92
10:48:11.7030	599616202831173036	76	56	85	121	117	101	101	90	29	-38	-24	-20	-182	-375	-371	-292	-308	-330	-328	-342	-348	-324	-301	-319	-371	-438	-499	-517	-506	-506	-497	-481	-474	-445	-398	-387	-407	-387	-337	-315	-306	-281	-261	-258	-245	-209	-168	-162	-177	-155	-110	-99	-94	-65	-56	-69	-56
10:48:12.1830	599616203268343388	-47	-72	-90	-94	-87	-112	-272	-445	-434	-382	-400	-375	-299	-263	-258	-234	-225	-301	-274	184	816	927	317	-483	-652	-238	-130	-292	-222	-126	-157	-130	-103	-171	-191	-112	-60	-51	-31	0	31	60	87	132	173	175	182	240	299	321	346	393	436	463	506	567	600
10:48:12.5740	599616203705544254	578	549	537	488	378	270	175	67	-31	-63	-54	-141	-344	-443	-373	-335	-346	-306	-267	-265	-243	-189	-146	-139	-150	-177	-245	-290	-265	-234	-229	-225	-200	-159	-126	-121	-128	-101	-60	-60	-85	-85	-78	-90	-78	-29	-2	-13	-18	6	24	29	49	72	60	42	65
10:48:13.0230	599616204142745124	99	108	94	123	285	405	209	6	18	-40	-103	-45	-58	-168	-288	-333	-297	-274	-267	-252	-240	-265	-261	22	657	1138	945	54	-879	-938	-463	-396	-497	-447	-571	-704	-576	-418	-360	-436	-483	-346	-357	-499	-465	-382	-375	-355	-362	-369	-195	6	-99	-211	-36	38	-45
10:48:13.4690	599616204579945990	54	207	216	209	290	308	150	0	-123	-364	-540	-542	-567	-546	-342	-303	-510	-526	-414	-414	-315	-164	-249	-326	-258	-306	-351	-261	-220	-238	-213	-189	-168	-117	-85	-94	-90	-58	-33	45	225	319	211	103	146	72	-123	-101	4	54	63	-47	-76	42	40	-29	-4
10:48:13.8930	599616205017131602	0	13	103	114	24	-130	-301	-258	-108	-130	-175	-175	-213	-189	-126	-96	-27	-22	-108	15	249	207	94	141	285	679	1226	1300	625	-209	-342	72	150	-24	27	117	83	87	141	139	117	137	175	195	195	189	204	236	245	245	252	200	92	2	-49	56	256
10:48:14.3410	599616205454347726	270	164	139	148	126	92	-15	-231	-369	-378	-436	-531	-508	-432	-479	-555	-513	-465	-472	-454	-396	-369	-398	-389	-310	-270	-270	-249	-321	-427	-303	-198	-312	-330	-258	-303	-384	-420	-425	-400	-362	-351	-364	-348	-299	-270	-272	-265	-247	-240	-234	-202	-150	-121	-114	-83	-36
10:48:14.7630	599616205891518078	-33	-51	-54	-121	-292	-396	-351	-402	-679	-821	-616	-450	-499	-531	-535	-594	-504	-63	519	702	285	-497	-942	-605	-243	-254	-231	-105	-38	-13	40	22	-2	108	191	112	20	33	58	-11	-29	108	321	486	465	384	418	463	463	479	438	324	272	339	425	461	513
10:48:15.1830	599616206328718944	567	486	337	272	261	159	-81	-276	-272	-231	-270	-270	-265	-355	-416	-362	-297	-281	-303	-330	-312	-279	-279	-272	-238	-229	-240	-213	-155	-141	-164	-146	-99	-85	-87	-67	-56	-119	-202	-166	-85	-76	-45	-29	-85	-81	-38	-38	-9	20	-63	-135	-101	-105	-148	-101	36
10:48:15.6890	599616206765919814	407	996	1237	639	-544	-1188	-771	-355	-447	-454	-353	-393	-423	-369	-346	-382	-425	-438	-452	-452	-434	-479	-551	-524	-463	-486	-542	-533	-454	-375	-306	-236	-211	-162	-74	-85	-101	18	81	-18	-110	-168	-234	-279	-330	-366	-360	-378	-373	-310	-290	-310	-261	-180	-139	-135	-108
10:48:16.0530	599616207203120680	-29	-87	-272	-195	58	63	-76	-65	-27	-200	-450	-483	-402	-391	-378	-310	-258	-252	-238	-193	-153	-123	-81	-58	-87	-103	15	159	141	69	31	-42	-141	-256	-353	-346	-213	168	726	888	319	-533	-821	-389	-108	-202	-164	-49	-78	-96	-22	31	36	45	65	92	121
10:48:16.5330	599616207640321550	153	180	153	0	-146	-81	65	105	87	63	60	108	182	252	306	303	254	209	168	85	-67	-177	-198	-263	-427	-506	-506	-569	-607	-623	-650	-582	-497	-533	-573	-522	-459	-423	-387	-355	-409	-499	-418	-315	-411	-479	-434	-414	-373	-301	-247	-191	-92	-58	-51	108	227
10:48:16.9530	599616208077491900	137	-22	-81	-83	-166	-216	-155	-78	-69	-234	-301	-63	-9	-252	-373	-348	-229	180	742	839	128	-765	-828	-303	-189	-306	-153	40	65	42	54	27	-33	-29	22	56	60	72	119	164	186	213	227	216	220	247	288	317	270	177	171	225	231	227	245	213	132
10:48:17.4030	599616208514692768	65	18	-58	-153	-191	-186	-283	-490	-576	-513	-488	-490	-425	-355	-348	-373	-382	-369	-353	-344	-330	-346	-405	-465	-510	-515	-519	-535	-517	-486	-479	-461	-414	-387	-380	-353	-303	-276	-299	-319	-294	-276	-274	-243	-204	-202	-211	-184	-130	-110	-119	-117	-96	27	418	900	924
10:48:17.8790	599616208951893634	274	-600	-857	-409	-162	-279	-256	-198	-346	-510	-468	-382	-409	-405	-317	-249	-222	-193	-150	-112	-76	-40	15	65	74	90	150	211	258	288	281	274	290	321	360	342	247	150	99	45	-36	-76	-81	-108	-121	-76	-29	-24	-45	-31	6	18	22	51	76	58	42
10:48:18.2730	599616209389094504	81	119	105	76	54	-33	-234	-393	-434	-519	-627	-594	-515	-576	-681	-690	-681	-706	-706	-679	-639	-598	-567	-544	-513	-481	-474	-486	-472	-452	-434	-378	-344	-373	-366	-292	-258	-283	-301	-301	-202	180	715	850	321	-452	-706	-317	-6	40	128	164	83	36	42	78	121
10:48:18.6930	599616209826295370	153	240	283	195	114	112	94	-31	-171	-200	-182	-182	-177	-159	-110	-29	42	87	94	51	47	182	279	112	-148	-261	-281	-301	-303	-303	-315	-339	-315	-227	-191	-216	-198	-141	-117	-99	-65	-47	-49	-47	-51	-85	-103	-110	-148	-171	-173	-193	-186	-186	-247	-324	-366
10:48:19.1430	599616210263496240	-362	-357	-378	-387	-391	-510	-706	-704	-598	-623	-623	-531	-506	-515	-488	-490	-486	-436	-398	-396	-429	-465	-434	-360	-315	-330	-299	-22	429	612	258	-427	-886	-690	-321	-279	-288	-209	-182	-171	-123	-96	-74	-18	15	0	40	99	92	112	175	155	78	81	150	200	222
10:48:19.5930	599616210700697106	243	283	344	391	425	465	459	310	108	38	24	-90	-216	-240	-240	-265	-256	-227	-216	-218	-193	-137	-101	-90	-85	-65	-42	-69	-117	-128	-148	-166	-144	-150	-202	-258	-364	-483	-519	-501	-474	-443	-454	-463	-407	-366	-375	-366	-333	-312	-299	-267	-222	-204	-222	-218	-162
10:48:20.0390	599616211137897976	-112	-99	-132	-173	-168	-168	-164	-103	-121	-308	-427	-357	-328	-366	-328	-252	-63	157	11	-186	110	452	213	-193	-218	-72	207	906	1491	1190	290	-319	-189	229	297	150	148	191	166	168	184	182	202	238	227	157	76	36	31	67	130	135	121	159	200	209	191
10:48:20.4330	599616211575098842	231	420	598	634	681	726	618	389	193	81	-36	-191	-346	-486	-616	-744	-843	-765	-582	-555	-564	-501	-506	-515	-409	-344	-382	-326	-218	-249	-317	-261	-168	-162	-184	-153	-128	-132	-92	-36	-58	-101	-40	27	24	-58	-283	-360	-63	105	-83	-105	128	148	9	-128	-333
10:48:20.9130	599616212012299712	-132	249	146	-15	-175	-722	-940	-436	-56	-132	-159	-51	-72	-137	-166	-256	-411	-560	-551	-288	236	796	801	94	-686	-780	-346	-238	-387	-301	-175	-182	-173	-123	-92	-65	-38	2	67	290	643	742	614	636	699	609	324	42	315	744	558	348	582	479	209	596	895
10:48:21.3030	599616212449500578	652	596	663	483	310	141	-130	-308	-222	-56	-333	-699	-544	-382	-533	-546	-355	-265	-285	-265	-222	-263	-326	-324	-319	-357	-432	-765	-1183	-1017	-402	-56	-132	-207	-130	-110	-126	-99	-65	-40	18	112	177	186	119	-27	85	364	261	45	42	78	-27	-265	-364	-292	-254
10:48:21.7830	599616212886701448	-240	-191	-150	-72	11	-31	-56	2	4	-159	-180	222	380	164	112	225	627	1255	1338	474	-524	-393	308	216	-63	200	364	198	243	432	249	-166	-333	-272	18	407	288	42	-267	-879	-654	103	-4	-308	-78	0	-150	-108	-15	-13	9	22	4	-56	-195	-258	-99
10:48:22.2000	599616213323902314	9	-351	-909	-906	-319	-31	-290	-409	-337	-501	-720	-704	-652	-675	-641	-562	-517	-504	-488	-452	-411	-391	-362	-335	-387	-481	-481	-414	-387	-389	-366	-319	-285	-274	-245	-202	-186	-184	-191	-182	-146	-135	-195	-276	-252	-108	-18	-20	-2	24	38	65	81	83	81	72	36
10:48:22.6820	599616213761103184	-81	-101	117	126	-164	-290	-189	-121	-258	-317	-81	285	753	978	447	-465	-805	-461	-294	-461	-468	-380	-452	-594	-600	-517	-542	-589	-407	-166	-270	-486	-297	-141	-396	-546	-427	-234	-126	-117	-60	9	15	47	119	99	-42	-121	20	218	225	121	27	-123	-227	-222	-303
10:48:23.0730	599616214198273532	-425	-470	-499	-432	-279	-240	-267	-157	-137	-391	-510	-375	-375	-490	-429	-312	-393	-587	-639	-533	-501	-531	-461	-391	-405	-387	-312	-265	-236	-213	-202	-180	-146	-119	-94	-78	-85	-69	-13	20	24	29	-6	-110	-195	-189	-141	-128	-137	-126	-83	-36	-40	-76	-78	-65	-54
10:48:23.5230	599616214635474402	135	668	1183	1082	321	-461	-614	-375	-330	-384	-335	-297	-265	-195	-164	-175	-139	-108	-141	-150	-105	-99	-135	-153	-139	-144	-202	-261	-263	-227	-186	-112	-45	-78	-76	15	87	135	175	182	157	94	18	-42	-108	-164	-182	-218	-299	-339	-317	-330	-429	-450	-330	-276	-317
10:48:23.9430	599616215072675268	-299	-265	-301	-344	-335	-308	-294	-339	-483	-573	-504	-463	-483	-461	-445	-420	-369	-330	-281	-227	-202	-166	-114	-108	-119	-85	-45	-47	-49	-22	-6	2	27	65	74	18	-40	-33	-4	-6	-13	15	42	47	78	159	243	231	135	103	135	189	506	1084	1347	920	51
10:48:24.4490	599616215509876138	-427	-101	186	-2	-121	-135	-315	-445	-344	-258	-308	-342	-306	-272	-276	-288	-288	-290	-297	-308	-308	-303	-292	-243	-195	-189	-144	-47	15	54	103	155	182	157	110	69	6	-92	-171	-211	-218	-222	-245	-245	-225	-231	-227	-173	-135	-128	-110	-81	-72	-63	-31	11	27
10:48:24.8130	599616215947046486	9	15	49	54	47	60	63	-24	-204	-290	-225	-198	-272	-339	-328	-303	-333	-375	-393	-387	-366	-301	-216	-195	-236	-276	-297	-288	-236	-164	-148	-180	-166	-96	-47	-33	6	114	200	189	168	195	189	157	166	195	195	171	135	85	36	22	45	56	33	11	11
10:48:25.2630	599616216384247356	-6	-20	0	18	11	-92	-297	-409	-391	-402	-429	-400	-393	-438	-474	-479	-443	-407	-409	-398	-398	-495	-580	-544	-546	-621	-598	-528	-528	-540	-492	-425	-400	-398	-366	-306	-245	-207	-222	-213	105	733	1116	785	-112	-677	-362	-15	-137	-146	47	63	-60	-47	56	54	-11
10:48:25.6830	599616216821448222	-27	6	47	65	87	121	99	-47	-184	-96	81	139	148	204	240	254	306	362	366	371	414	445	425	375	312	234	137	38	-24	-99	-229	-333	-351	-333	-328	-333	-308	-243	-164	-103	-74	-45	-49	-83	-65	-42	27	150	168	90	-54	-130	-6	132	159	153	159
10:48:26.1330	599616217258649092	123	27	-47	-81	-78	-222	-549	-675	-634	-726	-794	-726	-695	-708	-675	-639	-636	-614	-562	-517	-508	-510	-474	-425	-405	-389	-360	-351	-362	-344	-297	-261	-261	-265	-231	-189	-175	-162	-164	-249	-328	-292	-227	-209	-207	-193	-162	-123	-108	-83	-49	-47	-56	-22	22	36	31
10:48:26.5790	599616217695849962	36	58	72	74	96	108	-6	-211	-263	-171	-144	-162	-144	-148	-213	-236	-189	-141	-69	49	76	-22	-51	38	90	69	60	204	666	1230	1293	634	-193	-366	24	184	135	209	231	200	238	225	137	148	225	243	207	119	-9	-94	-112	-90	-51	-51	-94	-99	-74
10:48:27.0030	599616218133020310	-92	-96	-60	-63	-200	-378	-387	-306	-312	-330	-294	-294	-357	-418	-463	-524	-578	-582	-546	-504	-492	-513	-499	-443	-411	-375	-319	-299	-292	-247	-191	-162	-150	-126	-83	-49	-31	11	60	47	27	60	90	69	47	54	72	76	72	94	117	92	60	33	2	-22	-87
10:48:27.4290	599616218570221176	-180	-198	-184	-195	-171	-177	-330	-441	-375	-326	-355	-337	-303	-297	-281	-238	-193	-182	-204	-198	-155	-130	-119	-96	-76	-63	-47	-33	-56	-108	-130	-103	-67	-51	-27	13	33	15	18	54	69	42	0	-29	-51	-69	-72	-65	-105	-175	-204	-229	-290	-238	137	684	828
10:48:27.9330	599616219007391528	276	-531	-783	-522	-573	-789	-688	-630	-756	-742	-630	-607	-589	-506	-445	-441	-411	-339	-276	-247	-220	-180	-135	-96	-56	9	63	81	110	184	256	294	324	362	393	382	333	292	236	119	20	-18	-49	-94	-110	-103	-108	-101	-69	-29	-18	-29	-13	29	47	47	63
10:48:28.2930	599616219444592394	76	67	58	76	101	92	49	49	90	117	103	63	4	-141	-312	-326	-317	-436	-483	-402	-357	-353	-310	-261	-252	-245	-198	-135	-92	-87	-96	-78	-47	-29	-2	38	45	42	81	128	146	168	162	101	60	67	72	72	58	38	51	74	58	22	27	51	56
10:48:28.7990	599616219881793264	54	74	63	-76	-238	-245	-207	-243	-267	-236	-193	-164	-135	-96	-94	-128	-126	-121	-180	-216	-191	-173	-171	-153	-139	-191	-283	-312	-148	324	837	832	168	-596	-693	-283	-200	-373	-371	-373	-436	-407	-364	-364	-335	-299	-299	-281	-234	-222	-261	-272	-234	-202	-186	-144	-90
10:48:29.1930	599616220318963612	-67	-45	11	81	132	162	186	238	218	56	-65	-45	-76	-186	-236	-261	-328	-387	-407	-407	-407	-393	-348	-306	-308	-326	-303	-256	-234	-229	-204	-171	-157	-166	-211	-276	-299	-272	-227	-189	-173	-159	-135	-114	-105	-81	-36	-11	-22	-18	22	51	54	63	76	76	58
10:48:29.6430	599616220756164482	22	2	2	-15	-20	4	-83	-272	-335	-281	-285	-292	-227	-171	-166	-166	-132	-92	-78	-63	-24	-6	-13	-2	36	63	54	58	114	157	150	139	112	40	-9	4	31	42	40	42	63	78	60	6	-81	-128	33	513	987	902	195	-477	-414	6	33	-69	18
10:48:30.0630	599616221193365348	38	-11	38	96	90	83	83	9	-180	-330	-294	-227	-249	-234	-150	-101	-78	-40	-15	-29	-29	15	78	99	72	65	83	56	6	-27	-92	-200	-299	-366	-423	-497	-562	-558	-519	-522	-533	-508	-479	-477	-456	-409	-369	-360	-357	-319	-267	-279	-344	-357	-335	-335	-317
10:48:30.5650	599616221630535700	-261	-229	-234	-231	-198	-220	-384	-515	-474	-434	-452	-411	-333	-292	-294	-319	-303	-265	-247	-207	-159	-159	-166	-121	-69	-54	-58	-47	-24	-11	2	40	67	51	40	78	128	148	153	157	155	141	128	121	121	119	90	42	31	42	42	33	36	42	78	290	760
10:48:30.9590	599616222067736566	1152	990	254	-465	-454	-42	-33	-270	-375	-398	-375	-348	-353	-315	-243	-213	-191	-141	-105	-94	-69	-49	-67	-85	-65	-20	27	63	103	159	195	209	254	330	384	393	378	366	348	288	202	130	45	-42	-96	-137	-177	-202	-213	-222	-254	-301	-333	-398	-508	-555	-515
10:48:31.3830	599616222504906918	-481	-488	-495	-488	-499	-616	-771	-758	-690	-733	-740	-695	-749	-812	-765	-706	-677	-636	-585	-526	-488	-479	-447	-384	-344	-328	-301	-270	-261	-276	-267	-213	-186	-202	-182	-126	-101	-96	-67	-36	-29	-22	11	47	51	47	78	123	137	139	150	137	103	99	128	150	139
10:48:31.8030	599616222942107784	123	139	180	182	148	119	49	-90	20	551	877	456	-353	-715	-360	-60	-148	-155	-65	-83	-110	-132	-200	-218	-180	-155	-137	-103	-51	-9	-4	-2	40	96	117	110	94	99	135	177	236	294	308	326	384	425	425	405	362	288	202	130	83	36	-29	-58	-36
10:48:32.2530	599616223379308654	-18	-13	-2	-2	-74	-249	-355	-303	-279	-326	-321	-317	-364	-371	-330	-317	-315	-288	-243	-229	-279	-319	-294	-261	-281	-326	-344	-387	-456	-479	-510	-598	-636	-612	-582	-555	-531	-501	-470	-461	-456	-418	-373	-391	-447	-447	-396	-364	-353	-319	-276	-274	-279	-238	-182	-164	-164
10:48:32.6730	599616223816479002	-148	-119	-99	-87	-63	-58	-177	-371	-411	-328	-297	-288	-252	-229	-229	-220	-198	-186	-211	-234	-198	-157	-157	-153	-119	-87	-81	-72	18	337	830	1026	598	-164	-479	-105	150	9	-36	-15	-99	-130	-99	-90	-56	-9	4	29	63	81	90	81	85	103	105	126	177
10:48:33.1810	599616224253679872	209	231	274	279	164	20	33	126	128	110	148	175	135	76	22	-58	-146	-182	-175	-175	-191	-191	-162	-132	-126	-135	-164	-209	-227	-193	-148	-132	-137	-130	-103	-85	-87	-94	-121	-164	-180	-159	-162	-213	-267	-310	-353	-407	-477	-497	-474	-492	-499	-447	-411	-414	-407
10:48:33.5700	599616224690880738	-411	-459	-483	-441	-391	-378	-387	-364	-315	-339	-461	-526	-481	-497	-582	-567	-481	-465	-481	-434	-364	-335	-317	-276	-245	-238	-220	-175	-130	-108	-87	-49	-29	-51	-60	-42	-51	-76	-63	-15	15	15	9	31	63	72	78	94	137	405	927	1190	767	-45	-414	-78	110
10:48:34.0230	599616225128051090	-99	-114	0	-123	-339	-375	-290	-267	-299	-297	-249	-211	-191	-137	-83	-74	-63	-2	54	78	103	146	189	227	274	342	396	405	411	456	486	463	416	348	252	157	92	63	27	-40	-110	-130	-121	-121	-117	-103	-123	-164	-159	-126	-130	-189	-234	-240	-270	-324	-335
10:48:34.4130	599616225565251956	-333	-355	-362	-333	-306	-321	-351	-371	-468	-679	-816	-771	-724	-738	-713	-688	-702	-690	-650	-598	-542	-508	-468	-414	-391	-382	-337	-279	-247	-229	-159	-6	132	193	267	411	519	573	666	776	855	976	1032	650	13	-227	-123	-173	-319	-317	-261	-256	-245	-209	-177	-155	-135
10:48:34.8930	599616226002422308	-108	-67	-81	-231	-389	-380	-330	-357	-366	-342	-351	-364	-335	-283	-245	-236	-247	-236	-164	-90	-45	-4	6	-6	4	29	9	-27	-18	13	15	6	15	18	11	20	49	74	72	56	67	94	92	85	99	101	90	105	146	166	157	141	157	189	186	141	83
10:48:35.3390	599616226439623174	31	-2	-4	0	-38	-112	-166	-211	-335	-531	-603	-544	-551	-580	-526	-468	-461	-450	-418	-389	-373	-342	-283	-249	-276	-330	-378	-389	-373	-400	-450	-452	-434	-436	-436	-441	-470	-456	-384	-337	-321	-292	-261	-245	-211	-146	-81	-63	-76	-60	-27	-22	-33	-22	-11	-11	-6
10:48:35.7630	599616226876824044	24	63	65	33	0	33	252	580	636	121	-659	-877	-414	-166	-310	-308	-189	-171	-166	-112	-72	-60	-51	-24	24	63	72	74	105	141	157	184	227	236	184	144	157	153	123	150	216	256	283	326	355	328	270	227	177	94	6	-49	-74	-92	-101	-76	-54
10:48:36.1830	599616227314024910	-69	-76	-36	4	11	9	13	-15	-162	-328	-324	-276	-337	-360	-290	-254	-261	-240	-213	-231	-276	-290	-256	-249	-294	-333	-339	-360	-407	-429	-420	-427	-432	-400	-364	-373	-400	-375	-310	-274	-256	-231	-234	-319	-447	-490	-450	-443	-452	-409	-355	-342	-317	-267	-252	-256	-240
10:48:36.6340	599616227751195262	-157	146	661	927	524	-362	-940	-684	-317	-418	-488	-346	-288	-288	-245	-211	-180	-137	-119	-137	-148	-146	-128	-83	-22	11	27	58	103	139	175	236	292	315	337	398	456	477	474	463	432	369	288	216	144	58	9	11	15	4	-4	-58	-191	-283	-252	-195	-195
10:48:37.0530	599616228188396128	-207	-180	-130	-105	-94	-74	-76	-175	-355	-414	-342	-335	-371	-328	-265	-254	-236	-191	-168	-168	-150	-105	-69	-72	-78	-63	-69	-123	-132	-90	-87	-99	-74	-31	-6	-15	-36	-18	22	22	-2	-20	-47	-90	-110	-137	-195	-252	-297	-319	-321	-328	-317	-297	-312	-330	-310
10:48:37.5290	599616228625596998	-270	-92	351	738	470	-540	-1363	-1120	-616	-690	-780	-600	-531	-553	-490	-427	-405	-369	-312	-256	-216	-204	-180	-117	-67	-47	-15	22	51	78	128	198	256	267	256	283	333	355	373	384	360	310	261	198	108	11	-29	-31	-47	-51	-33	-27	-33	-15	22	51	49
10:48:37.9230	599616229062797864	40	58	87	92	96	114	60	-126	-308	-342	-324	-348	-357	-369	-441	-477	-418	-369	-369	-357	-306	-252	-225	-213	-198	-164	-137	-121	-87	-56	-78	-130	-141	-117	-114	-139	-173	-211	-252	-294	-317	-348	-402	-414	-378	-371	-391	-398	-389	-375	-364	-344	-312	-303	-324	-310	-256
10:48:38.3730	599616229499968216	-227	-238	-213	11	465	702	317	-472	-1014	-816	-387	-353	-411	-317	-261	-285	-308	-310	-267	-211	-191	-191	-207	-256	-270	-220	-162	-112	4	229	393	310	177	220	306	353	416	477	531	555	544	542	544	510	423	310	227	168	92	33	18	-2	-27	0	38	40	36
10:48:38.7930	599616229937169082	47	69	81	90	110	87	-65	-290	-416	-416	-373	-326	-243	-141	-78	-40	51	195	236	81	-157	-263	-186	-164	-231	-218	-168	-150	-24	216	272	137	130	146	103	200	276	213	198	238	243	222	195	195	222	225	213	222	202	175	193	175	110	87	81	36	6
10:48:39.2730	599616230374354694	-9	-90	-153	-186	-400	-625	-540	-402	-445	-479	-420	-409	-441	-420	-409	-429	-276	186	708	742	81	-686	-747	-317	-191	-254	-162	-112	-137	-85	-74	-157	-168	-117	-101	-90	-76	-54	-2	-40	-337	-573	-335	-110	-240	-117	218	184	159	369	378	283	335	398	398	402	387
10:48:39.6890	599616230811540300	317	211	90	-6	-31	-69	-171	-139	-20	-117	-371	-492	-432	-348	-319	-279	-211	-168	-164	-135	-85	-51	-24	15	24	11	13	22	24	2	-54	-92	-83	-105	-166	-85	47	36	20	36	-45	-148	-153	-45	135	249	261	254	222	83	-110	-265	-407	-542	-531	-234	9
10:48:40.1730	599616231248741170	-130	-258	-204	-330	-587	-636	-555	-551	-560	-506	-450	-429	-447	-528	-666	-792	-769	-663	-697	-805	-807	-684	-483	-258	-81	-99	-362	-591	-582	-492	-450	-416	-342	-240	-159	-112	-65	-15	9	11	36	83	123	155	186	227	112	-200	-328	-207	-177	-231	-186	-123	-128	-128	-99
10:48:40.5330	599616231685942036	-94	-146	-200	-182	-135	-139	-155	-121	-81	-87	-87	-38	-38	-193	-362	-330	-213	-213	-247	-182	-137	-191	-204	-123	-60	-15	67	110	87	121	391	911	1217	864	69	-378	-90	222	141	112	202	272	371	407	387	416	416	364	317	265	225	236	283	256	168	184	261
10:48:41.0130	599616232123112388	229	180	141	-40	-225	-193	-123	-135	-110	-65	-94	-155	-146	-117	-166	-267	-339	-371	-416	-459	-463	-456	-459	-447	-409	-355	-335	-366	-378	-335	-310	-315	-297	-276	-276	-258	-209	-168	-166	-177	-146	-108	-105	-101	-81	-83	-103	-92	-51	-27	-36	-47	-27	2	9	20	38
10:48:41.4340	599616232560313254	38	22	-11	-38	-38	-38	-45	-38	-117	-301	-378	-321	-324	-344	-283	-225	-218	-213	-218	-279	-344	-330	-274	-252	-249	-227	-180	-132	-99	-76	-58	-42	-40	-54	-83	-139	-184	-173	-130	-114	-130	-132	-117	-121	-148	-137	-69	31	387	1041	1280	571	-387	-564	-123	22	-119
10:48:41.9090	599616232997514124	-72	6	-114	-240	-222	-182	-299	-578	-760	-663	-553	-578	-526	-400	-357	-373	-344	-299	-346	-423	-427	-335	-103	119	132	36	-2	6	-78	-238	-274	-249	-319	-425	-488	-508	-510	-519	-526	-508	-468	-447	-450	-409	-355	-353	-348	-290	-231	-216	-207	-177	-144	-128	-110	-54	6
10:48:42.3310	599616233434684472	2	-11	40	67	13	-11	36	24	-135	-272	-220	-148	-184	-173	-76	-22	-27	-38	-31	0	49	117	146	105	-2	-173	-227	-13	195	96	-87	-103	-81	-69	45	222	288	211	137	267	735	1194	992	105	-666	-573	-31	87	-60	-56	-24	-51	-20	36	9	-78	-119
10:48:42.7530	599616233871885342	-76	-38	-33	18	90	45	-92	-157	-157	-231	-328	-315	-254	-252	-267	-238	-211	-209	-186	-137	-117	-171	-256	-337	-461	-594	-652	-677	-706	-672	-598	-591	-609	-488	-274	-263	-380	-317	-209	-198	-231	-285	-288	-240	-258	-344	-407	-429	-418	-391	-369	-344	-317	-297	-261	-227	-254
10:48:43.2030	599616234309086208	-301	-276	-218	-195	-186	-155	-130	-211	-380	-420	-344	-357	-405	-360	-303	-292	-267	-220	-200	-200	-175	-132	-96	-94	-110	-101	31	468	1075	1248	645	-299	-634	-189	67	-92	-96	15	11	4	67	103	90	90	126	164	184	186	195	220	245	261	285	330	353	319	272
10:48:43.6530	599616234746256560	292	344	366	384	436	490	495	456	384	168	-130	-261	-288	-373	-438	-434	-427	-425	-389	-335	-306	-308	-285	-227	-189	-177	-150	-123	-112	-99	-67	-31	-18	-36	-33	9	27	9	-27	-76	-103	-94	-74	-45	-36	-56	-45	-6	0	0	20	24	11	20	49	67	58
10:48:44.0700	599616235183457426	49	81	121	123	112	110	54	-56	-101	-74	-123	-317	-465	-461	-472	-504	-450	-391	-396	-398	-375	-303	38	661	992	544	-427	-956	-614	-369	-614	-666	-519	-517	-542	-499	-483	-483	-463	-436	-393	-357	-362	-344	-285	-258	-267	-238	-189	-153	-114	-54	15	72	108	164	245
10:48:44.5210	599616235620627778	299	317	324	299	155	-123	-335	-384	-456	-564	-569	-519	-513	-499	-474	-531	-614	-582	-499	-450	-438	-454	-436	-375	-339	-317	-267	-236	-234	-207	-155	-119	-114	-114	-87	-56	-47	-31	0	2	-9	11	54	69	56	54	76	94	94	105	135	146	132	101	85	96	87
10:48:44.9130	599616236057828644	74	90	101	96	119	128	27	-105	-110	-76	-150	-240	-227	-191	-195	-180	-128	-103	-117	-110	-63	-31	-38	-87	-168	-200	-177	-182	-213	-234	-238	-216	-173	-146	-132	-110	-87	-85	-87	-99	-117	-135	-155	-157	-157	-204	-249	-281	-326	-357	-351	-328	-317	-346	-378	-355	-317
10:48:45.4230	599616236495044775	-317	-312	-303	-398	-605	-729	-668	-600	-616	-603	-535	-486	-468	-427	-371	-351	-344	-297	-243	-218	-216	-213	-171	-121	-114	-101	-58	-49	-65	-38	9	20	-27	-110	-159	-148	-119	-90	-78	-103	-110	-63	-33	-38	-31	-11	4	15	31	69	94	76	63	74	157	531	1165
10:48:45.8130	599616236932230380	1487	1035	110	-312	51	247	27	18	150	128	85	101	90	-4	-168	-243	-182	-153	-177	-141	-67	78	353	801	2103	3591	3222	2391	2691	2207	1190	1206	1374	1802	2441	1903	1539	1910	1192	-121	-983	-1327	-1057	-891	-870	-704	-1138	-1595	-1410	-1111	-729	-684	-1206	-1066	-405	-616	-774
10:48:46.2890	599616237369446511	-429	-895	-1138	-207	279	-92	-270	-659	-1467	-1422	-783	-744	-924	-812	-841	-1091	-1336	-1566	-1683	-1719	-1665	-1527	-1440	-1332	-1098	-821	-553	-258	0	173	501	1208	1959	2441	2846	3213	3415	3573	3760	3863	3708	3327	2954	2603	2252	2018	1885	1723	1476	1158	819	524	373	245	-195	-733	-391
10:48:46.6530	599616237806784706	1167	3372	5958	8829	11709	14956	18062	18431	18431	18431	18431	18431	18431	18431	18431	18431	18431	18431	18431	18431	18431	18431	18431	18431	18431	18431	18431	18431	18431	18431	18431	18431	18431	18431	18431	18431	18431	18431	18431	18431	18431	18431	18431	18431	18431	18431	18431	18431	18431	18431	18431	18431	18431	18431	18431	18431	18431
10:48:47.1330	599616238244077130	18431	18431	18431	18431	18431	18431	18431	18431	18431	18431	18431	18431	18431	18431	18431	18431	18431	18431	18431	18431	18431	18431	18431	18431	18431	18431	18431	18431	18431	18431	18431	18431	18431	18431	18431	18431	18431	18431	18431	18431	18431	18431	18431	18431	18431	18431	18431	18431	18431	18431	18431	18431	18431	18431	18431	18431	18431
10:48:47.5540	599616238681308514	18431	18431	18431	18431	18431	18431	18431	18431	18431	18431	17049	13334	9299	6847	7092	7587	7029	7002	7855	8955	10157	11066	11102	10013	7794	4327	-418	-5877	-10614	-12774	-12767	-12425	-10562	-6552	-4138	-4687	-4970	-4169	-4844	-7164	-8719	-9376	-9639	-8215	-6248	-6194	-7002	-7049	-6622	-5861	-5312	-5323	-5092	-4709	-4345	-4081	-4691
10:48:48.0030	599616239118509384	-5357	-5382	-5616	-5571	-4302	-3778	-4747	-3962	-2452	-3762	-7308	-9585	-8532	-7479	-8188	-8240	-7261	-6525	-6039	-5362	-4860	-4468	-4252	-5476	-7697	-8964	-9473	-10298	-10490	-9637	-9207	-9014	-8705	-9626	-10429	-9254	-8379	-8827	-8822	-8548	-9180	-10031	-9716	-8793	-8737	-8901	-8289	-7742	-8120	-8786	-8476	-7263	-6052	-6640	-13053	-18433	-18433
10:48:48.4490	599616239555710250	-13863	-11532	-7931	-2067	931	285	-762	-888	-1044	-1575	-2034	-2315	-2490	-2612	-2785	-2972	-3055	-3100	-3190	-3269	-3327	-3426	-3490	-3510	-3548	-3539	-3622	-3872	-3942	-3836	-3897	-4007	-3978	-3937	-4000	-4115	-4153	-4102	-4122	-4210	-4205	-4192	-4277	-4315	-4248	-4203	-4246	-4315	-4295	-4210	-4212	-4255	-4234	-4318	-4453	-4363	-4214
10:48:48.9000	599616239992880602	-4223	-4282	-4315	-4297	-4279	-4572	-4898	-4630	-4372	-4570	-4574	-4354	-4358	-4459	-4439	-4378	-4351	-4354	-4340	-4291	-4329	-4428	-4399	-4309	-4336	-4399	-4390	-4387	-4498	-4581	-4455	-4333	-4417	-4498	-4446	-4507	-4534	-4090	-3679	-3955	-4630	-4979	-4693	-4390	-4534	-4691	-4630	-4579	-4608	-4621	-4635	-4734	-4801	-4792	-4808	-4817	-4842
10:48:49.2930	599616240430111990	-4876	-4797	-4736	-4844	-4932	-4864	-4941	-5319	-5425	-5024	-4894	-5107	-5031	-4799	-4799	-4858	-4774	-4732	-4822	-4864	-4831	-4849	-4952	-5071	-5094	-5040	-5060	-5107	-5053	-5038	-5128	-5132	-5040	-5002	-5024	-5125	-5247	-5186	-5112	-5155	-5119	-5096	-5188	-5193	-5213	-5411	-5447	-5317	-5308	-5328	-5348	-5434	-5431	-5398	-5472	-5485	-5461
10:48:49.7430	599616240867312856	-5544	-5632	-5688	-5683	-5776	-6147	-6163	-5724	-5706	-5926	-5834	-5758	-5791	-5726	-5654	-5643	-5636	-5611	-5553	-5497	-5533	-5560	-5445	-5357	-5400	-5398	-5321	-5317	-5341	-5292	-5202	-5110	-4878	-4435	-4185	-4599	-5393	-5616	-5173	-4986	-5107	-5017	-4939	-5074	-5119	-4984	-4873	-4858	-4851	-4788	-4743	-4779	-4831	-4916	-4930	-4799	-4756
10:48:50.1930	599616241304483204	-4752	-4624	-4558	-4576	-4491	-4439	-4709	-4995	-4756	-4419	-4464	-4513	-4374	-4306	-4365	-4394	-4372	-4466	-4639	-4624	-4567	-4716	-4810	-4682	-4554	-4520	-4495	-4421	-4320	-4306	-4347	-4270	-4138	-4115	-4129	-4088	-4030	-3994	-3969	-3915	-3841	-3852	-3890	-3811	-3712	-3724	-3730	-3683	-3654	-3654	-3681	-3676	-3589	-3582	-3631	-3548	-3451
10:48:50.6390	599616241741684074	-3472	-3474	-3420	-3417	-3505	-3573	-3469	-3413	-3717	-3944	-3658	-3442	-3541	-3487	-3354	-3386	-3411	-3321	-3251	-3249	-3267	-3240	-3161	-3125	-3163	-3206	-3204	-3170	-3138	-3091	-3044	-2952	-2601	-2036	-1809	-2328	-3154	-3321	-2884	-2794	-2945	-2817	-2695	-2749	-2760	-2693	-2643	-2639	-2616	-2547	-2529	-2567	-2531	-2434	-2398	-2457	-2544
10:48:51.0330	599616242178884940	-2585	-2569	-2524	-2497	-2506	-2596	-2835	-2904	-2641	-2531	-2605	-2544	-2475	-2598	-2740	-2688	-2643	-2769	-2864	-2805	-2742	-2756	-2751	-2697	-2659	-2634	-2594	-2524	-2461	-2472	-2484	-2423	-2423	-2493	-2439	-2344	-2358	-2373	-2317	-2234	-2196	-2214	-2214	-2151	-2153	-2220	-2184	-2117	-2144	-2191	-2191	-2162	-2202	-2279	-2247	-2155	-2139
10:48:51.5130	599616242616116328	-2153	-2106	-2070	-2209	-2443	-2425	-2225	-2232	-2319	-2227	-2108	-2101	-2092	-2007	-1955	-1977	-1948	-1854	-1802	-1804	-1800	-1802	-1878	-1928	-1840	-1741	-1734	-1750	-1703	-1620	-1577	-1572	-1559	-1523	-1489	-1478	-1442	-1379	-1354	-1399	-1428	-1381	-1379	-1437	-1426	-1377	-1377	-1413	-1435	-1415	-1458	-1530	-1487	-1415	-1424	-1433	-1399
10:48:51.9030	599616243053317194	-1379	-1379	-1361	-1311	-1269	-1289	-1316	-1264	-1230	-1399	-1602	-1530	-1404	-1440	-1464	-1433	-1404	-1390	-1365	-1284	-1206	-1188	-1170	-1138	-1136	-1134	-1095	-1048	-1028	-1046	-1109	-1170	-1147	-1095	-1062	-1026	-1037	-1059	-866	-346	153	132	-508	-1192	-1188	-805	-810	-992	-960	-884	-861	-805	-769	-794	-780	-717	-702
10:48:52.4130	599616243490487546	-699	-643	-643	-832	-990	-879	-762	-792	-774	-699	-661	-632	-576	-499	-459	-452	-405	-324	-285	-283	-276	-310	-418	-515	-540	-567	-643	-702	-688	-652	-650	-650	-623	-600	-596	-585	-544	-497	-497	-573	-639	-594	-558	-571	-546	-519	-528	-519	-477	-450	-468	-483	-447	-423	-463	-488	-456
10:48:52.8290	599616243927688412	-452	-470	-443	-398	-389	-416	-427	-396	-384	-423	-418	-384	-477	-668	-699	-589	-578	-623	-589	-531	-526	-522	-477	-452	-481	-486	-434	-391	-387	-432	-474	-445	-418	-425	-396	-371	-398	-398	-351	-328	-342	-344	-330	-324	-326	-310	-279	-306	-407	-447	-382	-355	-382	-378	-353	-348	-346
10:48:53.2840	599616244364858764	-321	-292	-299	-339	-373	-396	-499	-693	-731	-634	-632	-650	-582	-537	-567	-585	-537	-488	-490	-483	-450	-443	-447	-423	-384	-366	-380	-378	-326	-279	-281	-288	-285	-303	-319	-312	-335	-389	-418	-400	-371	-357	-357	-328	-301	-330	-366	-258	128	618	729	213	-522	-697	-328	-213	-427
10:48:53.6740	599616244802059630	-510	-445	-409	-391	-369	-369	-360	-330	-335	-348	-312	-355	-585	-724	-605	-515	-546	-513	-452	-427	-393	-335	-270	-234	-227	-182	-110	-69	-60	-51	-58	-96	-155	-204	-252	-326	-396	-409	-389	-389	-398	-384	-375	-389	-409	-391	-346	-355	-384	-351	-306	-310	-312	-288	-283	-297	-288
10:48:54.1530	599616245239260500	-252	-234	-258	-285	-263	-281	-468	-679	-713	-679	-679	-641	-573	-551	-564	-549	-501	-456	-452	-483	-488	-479	-486	-483	-490	-513	-522	-513	-517	-576	-623	-625	-661	-711	-697	-652	-636	-648	-654	-641	-616	-609	-600	-558	-546	-578	-567	-513	-497	-508	-528	-567	-582	-558	-528	-495	-481
10:48:54.5430	599616245676461366	-506	-483	-425	-409	-416	-405	-393	-432	-497	-488	-436	-531	-720	-720	-596	-594	-672	-729	-731	-688	-654	-609	-560	-562	-573	-549	-567	-600	-562	-501	-488	-483	-450	-405	-391	-418	-438	-409	-373	-371	-362	-330	-330	-342	-317	-283	-279	-310	-267	42	555	794	420	-353	-765	-456	-171
10:48:55.0500	599616246113631718	-279	-364	-353	-360	-353	-441	-627	-627	-522	-551	-567	-474	-416	-416	-405	-378	-346	-326	-303	-254	-231	-245	-216	-144	-110	-141	-184	-155	-96	-78	-63	-29	-65	-182	-285	-330	-380	-445	-477	-495	-508	-508	-488	-456	-447	-479	-468	-416	-423	-445	-423	-411	-427	-416	-384	-366	-389
10:48:55.4130	599616246550832584	-414	-389	-362	-378	-387	-378	-384	-384	-400	-438	-479	-652	-823	-742	-657	-726	-726	-657	-668	-695	-645	-594	-589	-609	-607	-576	-560	-567	-542	-535	-594	-641	-616	-636	-769	-870	-868	-859	-909	-954	-969	-1019	-1053	-1021	-976	-951	-947	-956	-947	-918	-906	-891	-832	-812	-848	-839	-780
10:48:55.8930	599616246988033454	-765	-783	-796	-807	-870	-1053	-1156	-1046	-994	-1055	-1005	-918	-922	-922	-758	-366	60	94	-497	-1275	-1417	-992	-812	-877	-830	-774	-769	-747	-729	-720	-675	-630	-636	-650	-605	-567	-576	-553	-510	-513	-519	-499	-526	-600	-614	-567	-513	-488	-483	-432	-364	-355	-353	-324	-315	-369	-477
10:48:56.2830	599616247425234320	-571	-618	-672	-729	-742	-747	-789	-812	-762	-729	-859	-1073	-1077	-960	-958	-958	-877	-846	-873	-852	-787	-749	-760	-801	-805	-767	-758	-753	-711	-693	-722	-713	-659	-636	-643	-641	-623	-616	-621	-600	-558	-558	-594	-578	-526	-522	-535	-526	-517	-528	-578	-654	-654	-625	-677	-742	-735
10:48:56.7340	599616247862435190	-720	-726	-722	-735	-879	-1057	-1014	-900	-936	-956	-870	-819	-846	-837	-623	-112	393	364	-333	-1089	-1109	-702	-648	-756	-688	-625	-632	-625	-607	-605	-634	-657	-648	-632	-600	-569	-551	-517	-486	-522	-562	-526	-474	-463	-479	-497	-483	-481	-492	-447	-407	-441	-454	-423	-450	-546	-650
10:48:57.1790	599616248299605540	-738	-814	-927	-1023	-1026	-1125	-1390	-1462	-1287	-1221	-1253	-1192	-1122	-1102	-1073	-1010	-947	-931	-938	-893	-834	-837	-841	-805	-780	-776	-760	-715	-672	-681	-697	-654	-607	-612	-607	-573	-571	-612	-616	-567	-531	-553	-564	-524	-488	-495	-483	-452	-454	-472	-452	-411	-389	-407	-425	-396	-371
10:48:57.6340	599616248736806408	-382	-366	-348	-456	-668	-742	-641	-612	-670	-654	-641	-717	-769	-733	-695	-713	-724	-677	-634	-639	-643	-616	-573	-560	-553	-513	-486	-508	-515	-495	-436	-132	463	848	517	-378	-913	-589	-299	-488	-526	-369	-364	-414	-420	-459	-470	-436	-409	-369	-348	-364	-342	-288	-267	-258	-234
10:48:58.0230	599616249174007274	-213	-204	-189	-144	-90	-74	-78	-33	20	-65	-238	-256	-198	-234	-294	-315	-366	-465	-555	-643	-753	-792	-744	-713	-715	-697	-650	-598	-569	-573	-564	-517	-488	-486	-454	-423	-438	-456	-427	-393	-423	-490	-504	-470	-472	-524	-555	-571	-630	-675	-648	-661	-749	-774	-731	-711	-713
10:48:58.5030	599616249611208144	-693	-648	-666	-850	-1012	-929	-830	-864	-857	-789	-753	-740	-706	-652	-627	-641	-623	-558	-524	-526	-508	-479	-465	-454	-423	-380	-387	-465	-555	-578	-544	-519	-501	-477	-463	-445	-398	-357	-362	-373	-337	-292	-290	-292	-270	-256	-263	-247	-204	-182	-195	-207	-177	-148	-153	-148	-128
10:48:58.9230	599616250048378494	-119	-126	-150	-164	-144	-153	-175	-155	-202	-387	-481	-391	-353	-391	-362	-317	-315	-321	-315	-292	-274	-267	-236	-207	-220	-227	-189	-166	-195	-103	328	893	1023	420	-461	-690	-301	-258	-483	-407	-306	-364	-344	-272	-265	-249	-189	-168	-189	-166	-112	-87	-83	-69	-58	-54	-47
10:48:59.3990	599616250485609880	-15	33	47	36	74	123	29	-155	-204	-180	-227	-265	-261	-297	-425	-560	-614	-652	-715	-738	-724	-731	-742	-713	-657	-621	-623	-618	-571	-531	-526	-497	-456	-454	-456	-420	-373	-355	-362	-360	-339	-360	-398	-371	-337	-405	-483	-443	-373	-369	-378	-353	-315	-294	-285	-249	-220
10:48:59.7930	599616250922780228	-238	-240	-191	-153	-157	-166	-157	-164	-297	-472	-454	-375	-416	-420	-339	-294	-319	-348	-326	-292	-288	-267	-216	-198	-218	-202	-148	-126	-130	-117	-99	-96	-96	-72	-33	-33	-58	-42	-4	2	-6	6	15	4	2	29	60	65	24	-15	-11	2	0	-27	-123	-200	-168
10:49:00.2430	599616251359996359	-117	-112	-126	-130	-105	-130	-310	-463	-420	-380	-423	-420	-391	-416	-504	-549	-513	-499	-526	-508	-474	-490	-504	-499	-519	-524	-504	-501	-501	-443	-155	398	756	434	-375	-812	-488	-216	-355	-380	-261	-263	-270	-193	-164	-195	-175	-110	-81	-81	-65	-42	-31	-15	13	22	-29
10:49:00.6930	599616251797181964	-63	-15	47	72	90	72	11	-56	-164	-209	-117	-78	-123	-110	-92	-155	-234	-276	-319	-362	-369	-339	-310	-310	-315	-274	-225	-213	-202	-171	-177	-218	-198	-139	-126	-146	-139	-101	-81	-87	-69	-40	-47	-67	-45	-2	6	-20	-27	4	18	6	22	49	29	6	33
10:49:01.1850	599616252234382834	67	65	40	33	54	56	18	4	4	-135	-333	-330	-231	-240	-319	-371	-342	-308	-301	-261	-229	-258	-285	-279	-270	-279	-283	-297	-339	-389	-425	-441	-454	-486	-481	-432	-402	-405	-443	-479	-463	-443	-425	-387	-378	-393	-369	-324	-310	-308	-285	-267	-270	-261	-222	-184	-182
10:49:01.5630	599616252671583700	-175	-130	-90	-103	-123	-112	-148	-330	-492	-438	-357	-393	-420	-416	-423	-405	-357	-348	-355	-159	369	837	706	-92	-810	-661	-236	-285	-364	-234	-220	-265	-193	-123	-121	-119	-94	-67	-51	-29	9	33	22	22	54	42	-2	4	47	76	101	139	202	249	261	288	342
10:49:01.9830	599616253108784570	375	373	344	285	202	94	0	-49	-162	-393	-506	-427	-396	-429	-391	-344	-337	-321	-276	-240	-267	-306	-272	-220	-213	-213	-191	-177	-175	-164	-137	-130	-195	-276	-256	-204	-209	-204	-173	-173	-186	-164	-128	-110	-123	-139	-130	-119	-128	-121	-101	-101	-132	-157	-141	-121	-146
10:49:02.4320	599616253545985436	-153	-108	-72	-76	-69	-63	-198	-425	-474	-384	-389	-425	-393	-355	-344	-328	-283	-254	-274	-297	-281	-148	274	758	708	-49	-904	-1014	-630	-591	-738	-670	-596	-614	-598	-569	-560	-546	-526	-510	-535	-627	-659	-585	-528	-515	-483	-441	-414	-382	-344	-297	-229	-184	-175	-126	-42
10:49:02.9100	599616253983171048	0	13	4	-76	-195	-288	-346	-432	-630	-819	-810	-747	-769	-758	-693	-666	-661	-614	-546	-510	-510	-497	-452	-418	-407	-375	-344	-348	-353	-310	-272	-274	-285	-276	-283	-344	-375	-330	-297	-321	-328	-283	-249	-240	-245	-238	-218	-213	-225	-267	-351	-387	-346	-285	-254	-254	-267
10:49:03.2740	599616254420356654	-270	-265	-265	-258	-227	-267	-474	-625	-546	-486	-542	-540	-492	-506	-447	-38	582	792	265	-589	-911	-517	-276	-396	-382	-297	-315	-290	-218	-222	-252	-207	-157	-155	-148	-117	-110	-117	-94	-49	-11	0	-38	-54	-6	33	56	108	146	159	195	247	267	238	177	117	47
10:49:03.7790	599616254857557524	-63	-213	-369	-540	-747	-823	-720	-677	-715	-677	-603	-582	-569	-510	-468	-481	-499	-506	-508	-492	-497	-537	-549	-526	-519	-508	-524	-596	-639	-634	-645	-659	-659	-648	-641	-643	-621	-573	-571	-600	-585	-533	-515	-515	-504	-483	-463	-441	-418	-434	-488	-510	-483	-456	-452	-450	-427
10:49:04.1430	599616255294758390	-411	-407	-393	-360	-324	-328	-346	-317	-315	-474	-551	-123	465	465	-254	-1026	-1037	-614	-578	-675	-560	-506	-528	-483	-501	-573	-533	-443	-418	-423	-407	-355	-308	-285	-247	-200	-189	-180	-121	-58	-27	-6	31	87	137	173	218	254	236	200	175	123	22	-85	-162	-207	-254
10:49:04.6230	599616255731928742	-299	-288	-301	-481	-652	-596	-504	-526	-519	-461	-438	-434	-393	-335	-321	-346	-328	-272	-252	-306	-378	-373	-346	-348	-324	-272	-267	-297	-279	-225	-193	-211	-254	-265	-252	-245	-220	-182	-191	-216	-195	-157	-157	-159	-139	-139	-150	-141	-108	-90	-108	-126	-108	-90	-99	-94	-72
10:49:05.0430	599616256169221164	-83	-108	-96	-65	-58	-90	-139	-189	-276	-463	-596	-573	-564	-596	-562	-537	-587	-632	-659	-684	-677	-661	-639	-623	-643	-645	-596	-589	-663	-711	-672	-634	-627	-600	-555	-542	-553	-540	-533	-578	-607	-585	-555	-537	-519	-488	-443	-423	-438	-416	-357	-337	-339	-321	-299	-290	-281
10:49:05.4940	599616256606330478	-247	-213	-222	-249	-227	-193	-292	-488	-535	-465	-465	-470	-407	-389	-461	-495	-434	-387	-387	-362	-319	-315	-321	-297	-245	-202	-191	-186	-157	-148	-162	-150	-132	-153	-171	-162	-202	-292	-317	-290	-270	-249	-240	-247	-229	-20	492	985	900	114	-632	-535	-141	-213	-330	-202	-159
10:49:05.9400	599616257043531344	-220	-195	-132	-112	-103	-94	-94	-108	-227	-387	-373	-303	-364	-405	-342	-292	-292	-292	-290	-279	-281	-321	-317	-267	-261	-238	-173	-150	-173	-200	-258	-353	-438	-486	-506	-553	-603	-587	-537	-526	-515	-479	-463	-465	-490	-551	-564	-540	-540	-510	-450	-427	-436	-465	-515	-526	-492
10:49:06.3640	599616257480732214	-445	-414	-420	-429	-396	-405	-571	-693	-625	-591	-634	-582	-499	-483	-490	-461	-414	-387	-373	-335	-294	-301	-308	-256	-207	-200	-209	-211	-236	-281	-276	-227	-207	-227	-222	-175	-141	-141	-146	-130	-108	-103	-96	-67	-56	-81	-81	-40	-22	-29	-33	-22	-6	-13	-76	-128	-130
10:49:06.8140	599616257917933080	-146	-150	-114	-119	-159	-166	-195	-328	-510	-560	-501	-535	-605	-591	-594	-632	-621	-589	-591	-594	-569	-533	-506	-510	-522	-486	-445	-441	-429	-396	-387	-396	-373	-326	-297	-312	-351	-337	-294	-292	-283	-247	-245	-258	-229	-175	-162	-182	-180	-146	-130	-128	-108	-87	-92	-83	-36
10:49:07.2340	599616258355133950	2	-13	-49	-60	-51	-96	-182	-184	-166	-319	-544	-578	-495	-490	-508	-481	-472	-396	6	643	900	389	-472	-744	-344	-193	-364	-319	-218	-247	-227	-150	-139	-159	-132	-81	-60	-51	-31	-18	-9	2	2	-22	-49	-47	-13	36	72	103	148	182	207	245	299	339	337
10:49:07.6540	599616258792334816	303	254	175	60	-38	-123	-272	-531	-724	-729	-731	-796	-787	-740	-798	-886	-841	-798	-873	-886	-794	-733	-720	-704	-675	-634	-600	-580	-540	-499	-504	-506	-454	-402	-396	-396	-375	-348	-328	-315	-283	-254	-267	-270	-220	-184	-189	-191	-175	-171	-193	-204	-166	-148	-173	-164	-119
10:49:08.1300	599616259229505168	-96	-99	-99	-92	-150	-324	-438	-373	-333	-378	-346	-274	-263	-252	-220	-209	-209	-184	-153	-126	-126	-146	-184	-245	-274	-285	-308	-301	-281	-270	-238	-207	-220	-243	-207	-159	-162	-164	-137	-130	-141	-121	-81	-63	-74	-85	-65	-40	-40	-33	-15	-22	-24	11	49	54	13
10:49:08.5240	599616259666706034	-56	-105	-112	-119	-108	-92	-207	-405	-436	-348	-353	-389	-373	-355	-227	229	801	882	231	-564	-636	-207	-153	-315	-240	-166	-204	-182	-114	-105	-153	-240	-328	-346	-319	-303	-283	-247	-220	-186	-128	-101	-105	-69	-6	31	58	103	141	171	207	256	299	294	247	218	189
10:49:08.9740	599616260103906904	105	2	-69	-162	-360	-564	-580	-562	-654	-668	-573	-526	-522	-479	-432	-418	-411	-378	-328	-301	-303	-299	-263	-238	-240	-222	-193	-200	-216	-189	-150	-144	-157	-155	-135	-132	-171	-204	-207	-256	-355	-400	-402	-441	-510	-549	-542	-551	-567	-535	-515	-546	-551	-499	-470	-477	-472
10:49:09.3930	599616260541077252	-452	-438	-432	-409	-371	-418	-612	-733	-645	-580	-607	-582	-531	-501	-492	-504	-483	-452	-456	-429	-373	-357	-351	-312	-294	-301	-283	-236	-202	-207	-225	-202	-155	-148	-148	-123	-117	-126	-117	-83	-56	-67	-87	-67	-36	-40	-76	-123	-171	-231	-274	-236	-182	-182	-177	-141	-123
10:49:09.8740	599616260978278122	-137	-128	-114	-222	-427	-495	-405	-378	-416	-389	-326	-315	-324	-292	-119	308	796	837	216	-526	-580	-204	-216	-389	-306	-216	-240	-245	-216	-177	-137	-121	-117	-99	-74	-63	-42	0	20	6	18	67	103	110	128	159	182	204	249	308	339	337	348	362	297	204	150
10:49:10.3190	599616261415448470	60	-117	-258	-290	-292	-351	-402	-375	-353	-488	-663	-648	-578	-605	-589	-501	-461	-472	-456	-402	-371	-364	-337	-297	-294	-308	-283	-236	-225	-270	-301	-265	-238	-249	-222	-189	-204	-218	-186	-148	-139	-150	-153	-132	-119	-121	-99	-78	-101	-114	-81	-51	-63	-85	-76	-54	-58
10:49:10.7430	599616261852649340	-67	-40	-22	-47	-92	-112	-137	-288	-479	-540	-598	-686	-650	-585	-634	-702	-699	-695	-708	-697	-686	-679	-663	-645	-614	-573	-569	-589	-560	-495	-461	-445	-423	-414	-429	-447	-477	-504	-508	-504	-477	-432	-409	-393	-366	-353	-362	-357	-202	249	756	787	173	-562	-657	-240	-137
10:49:11.1640	599616262289850206	-290	-256	-173	-171	-148	-128	-139	-126	-164	-339	-441	-418	-452	-474	-393	-321	-306	-288	-270	-306	-357	-321	-243	-207	-191	-144	-63	11	42	56	76	90	65	9	-40	-108	-209	-267	-263	-265	-281	-274	-267	-297	-339	-324	-265	-254	-272	-245	-193	-171	-171	-159	-141	-132	-130
10:49:11.6410	599616262727035818	-110	-74	-74	-108	-99	-72	-171	-366	-423	-364	-366	-375	-321	-274	-281	-290	-256	-209	-209	-243	-247	-227	-225	-218	-177	-146	-157	-182	-227	-299	-319	-276	-252	-258	-256	-222	-184	-164	-171	-171	-144	-123	-126	-105	-81	-94	-108	-81	-42	-11	-2	-38	-63	-56	-60	-67	-67
10:49:12.0340	599616263164251942	-94	-108	-74	-49	-58	-85	-123	-166	-243	-324	-346	-303	-65	364	463	-155	-981	-1109	-675	-562	-711	-643	-535	-562	-580	-562	-571	-576	-549	-517	-492	-465	-441	-393	-335	-299	-326	-389	-382	-342	-333	-294	-231	-202	-164	-83	-11	18	36	81	119	117	92	40	-54	-146	-207
10:49:12.5390	599616263601422294	-256	-333	-409	-429	-391	-423	-591	-699	-623	-578	-598	-537	-459	-438	-427	-396	-355	-324	-303	-270	-238	-245	-245	-207	-171	-157	-157	-155	-132	-117	-114	-87	-72	-121	-155	-112	-74	-78	-83	-69	-58	-54	-45	-15	-9	-76	-150	-135	-101	-117	-117	-90	-83	-83	-65	-31	-24
10:49:12.9030	599616264038623160	-47	-40	-6	4	0	9	9	4	-4	-11	2	-85	-292	-366	-301	-310	-337	-294	-272	-283	-270	-222	-186	-191	-202	-175	-166	-121	209	771	999	517	-301	-596	-202	-2	-173	-162	-58	-105	-153	-146	-164	-173	-141	-96	-74	-78	-81	-51	-24	-18	9	40	2	-76	-76
10:49:13.3540	599616264475824030	-15	6	4	31	67	-4	-162	-177	-103	-135	-191	-211	-281	-411	-562	-702	-792	-825	-823	-798	-783	-792	-767	-702	-663	-650	-625	-598	-578	-555	-515	-465	-452	-465	-434	-375	-362	-362	-335	-317	-312	-301	-270	-236	-234	-252	-236	-240	-294	-306	-265	-258	-267	-240	-191	-166	-177
10:49:13.7740	599616264912994378	-189	-162	-128	-123	-114	-112	-249	-499	-603	-513	-470	-506	-483	-416	-382	-366	-330	-290	-285	-288	-256	-209	-204	-245	-256	-211	-184	-189	-159	-126	-139	-144	-105	-74	-67	-72	-69	-51	-38	-36	-9	4	-20	-22	11	29	22	13	15	29	38	63	112	128	69	-2	-6
10:49:14.2240	599616265350195248	9	-15	-33	-27	-90	-267	-373	-315	-290	-333	-306	-263	-220	72	607	816	328	-506	-864	-497	-240	-396	-396	-252	-258	-276	-211	-182	-200	-209	-218	-218	-209	-207	-175	-128	-112	-96	-58	-63	-105	-96	-42	-13	-27	-47	-38	-27	-49	-42	-9	-27	-56	-54	-74	-148	-249
10:49:14.6690	599616265787396114	-335	-384	-423	-463	-483	-546	-724	-893	-859	-756	-749	-747	-690	-639	-609	-576	-519	-481	-483	-470	-407	-362	-357	-378	-445	-504	-483	-438	-400	-369	-369	-357	-308	-274	-267	-256	-258	-303	-335	-299	-245	-238	-252	-225	-175	-159	-155	-132	-112	-110	-103	-72	-36	-45	-69	-47	-9
10:49:15.0940	599616266224596985	-9	-6	13	-13	-166	-333	-324	-256	-290	-312	-252	-216	-240	-247	-218	-213	-220	-191	-146	-123	-132	-132	-99	-72	-78	-60	-29	-40	-58	-29	4	13	-22	-101	-137	-117	-117	-108	-74	-67	-58	-18	13	9	-38	-92	-99	-90	-94	-72	-51	-74	-76	-31	-6	-20	-27
10:49:15.5140	599616266661767334	-38	20	337	828	992	436	-580	-1030	-621	-418	-652	-681	-587	-621	-627	-555	-515	-519	-533	-546	-555	-537	-510	-479	-447	-427	-407	-351	-290	-279	-274	-216	-153	-121	-78	-20	20	45	85	144	180	126	11	-45	-65	-148	-229	-256	-299	-346	-342	-342	-389	-409	-380	-342	-315
10:49:16.0230	599616267098968202	-292	-256	-229	-312	-497	-555	-465	-436	-461	-425	-369	-348	-328	-281	-247	-256	-252	-209	-168	-153	-153	-146	-123	-108	-96	-72	-85	-155	-173	-119	-92	-99	-90	-72	-58	-51	-31	0	9	-13	-11	29	47	42	42	47	47	40	49	47	-47	-144	-103	-29	-47	-69	-45
10:49:16.3840	599616267536169068	-45	-87	-128	-123	-83	-85	-114	-96	-58	-69	-92	-74	-103	-252	-216	292	794	621	-168	-825	-717	-315	-299	-402	-380	-409	-452	-443	-443	-463	-461	-425	-387	-378	-396	-400	-391	-373	-333	-283	-258	-247	-220	-173	-132	-99	-40	13	31	60	126	180	193	184	166	128	56
10:49:16.8900	599616267973354680	-20	-99	-283	-582	-742	-672	-618	-639	-630	-630	-634	-589	-526	-474	-438	-429	-398	-333	-294	-285	-258	-225	-213	-200	-164	-121	-114	-132	-112	-67	-56	-58	-36	-22	-29	-20	13	45	40	20	13	-15	-56	-47	-20	-27	-36	-15	20	40	31	15	42	78	92	117	141
10:49:17.2840	599616268410540286	126	99	99	108	99	72	56	58	-13	-207	-357	-389	-423	-461	-420	-384	-380	-162	378	769	488	-317	-803	-531	-198	-243	-252	-139	-130	-153	-114	-81	-72	-49	-9	6	-4	4	49	87	94	96	114	135	144	166	218	245	218	211	267	319	330	351	384	382	360
10:49:17.7340	599616268847741156	346	315	216	74	-42	-135	-297	-517	-605	-598	-636	-677	-677	-661	-666	-681	-645	-580	-591	-659	-677	-648	-654	-686	-679	-650	-641	-623	-569	-535	-526	-483	-443	-445	-438	-393	-348	-324	-319	-317	-290	-256	-222	-173	-130	-137	-146	-108	-90	-119	-144	-128	-103	-96	-94	-103	-150
10:49:18.1840	599616269284942022	-186	-168	-130	-112	-110	-92	69	506	891	688	-81	-859	-949	-481	-272	-342	-294	-222	-231	-209	-162	-139	-103	-85	-110	-99	-45	-58	-126	-139	-139	-177	-180	-123	-65	-40	-33	13	90	146	182	231	276	288	288	306	299	213	96	20	-33	-92	-135	-144	-153	-175	-164
10:49:18.6040	599616269722142892	-123	-101	-110	-114	-90	-85	-123	-121	-85	-159	-348	-443	-373	-330	-364	-360	-310	-285	-281	-247	-211	-225	-231	-189	-150	-148	-157	-141	-92	-63	-65	-40	-22	-54	-76	-81	-139	-240	-288	-281	-281	-281	-249	-198	-180	-195	-191	-164	-76	279	823	996	472	-429	-852	-515	-279
10:49:19.0240	599616270159343758	-441	-483	-402	-427	-454	-414	-414	-537	-704	-720	-618	-612	-672	-670	-621	-589	-555	-499	-456	-438	-393	-315	-240	-200	-171	-110	-31	15	45	81	81	31	-22	-67	-130	-220	-294	-310	-310	-330	-321	-288	-294	-312	-306	-369	-495	-524	-468	-423	-396	-371	-326	-288	-292	-288	-240
10:49:19.5020	599616270596514110	-200	-189	-191	-184	-184	-301	-477	-479	-405	-432	-436	-357	-308	-288	-249	-218	-200	-189	-184	-177	-218	-297	-294	-225	-200	-204	-184	-159	-144	-128	-105	-76	-85	-101	141	751	1251	1073	216	-528	-405	6	-27	-110	-20	-22	-47	9	36	27	49	56	18	-33	-94	-128	-121
10:49:19.9240	599616271033714976	-119	-96	-42	-15	0	15	-27	-114	-128	-58	-56	-168	-234	-209	-207	-234	-238	-288	-405	-506	-555	-585	-618	-652	-663	-627	-589	-598	-605	-576	-567	-560	-504	-450	-432	-423	-398	-366	-346	-321	-279	-261	-276	-261	-211	-186	-189	-186	-171	-155	-148	-132	-96	-83	-105	-103	-74
10:49:20.3440	599616271470915846	-67	-87	-132	-182	-193	-225	-283	-270	-321	-517	-582	-474	-441	-459	-411	-369	-364	-342	-294	-245	-236	-249	-218	-164	-155	-148	-119	-110	-121	-103	-60	-36	-47	-63	-74	-110	-139	-114	-85	-94	-105	-81	-40	-22	-33	-40	-18	6	4	11	33	29	11	29	60	63	49
10:49:20.7930	599616271908116712	42	49	56	60	74	67	-60	-258	-337	-353	-425	-463	-434	-477	-600	-650	-625	-654	-690	-654	-600	-582	-580	-567	-544	-522	-504	-477	-434	-418	-429	-409	-362	-339	-328	-310	-297	-283	-265	-243	-211	-204	-249	-261	-211	-193	-195	-162	-119	-103	-94	-76	-65	-72	-85	-76	-56
10:49:21.2390	599616272345287064	-56	-51	-29	-38	-69	-74	-42	-54	-229	-393	-137	515	1023	900	96	-643	-540	-191	-292	-389	-288	-279	-310	-330	-384	-364	-294	-290	-288	-229	-168	-139	-135	-117	-72	-38	-20	24	69	72	81	139	200	234	265	310	353	380	387	364	310	238	173	112	13	-123	-220
10:49:21.6340	599616272782487930	-263	-297	-339	-378	-398	-499	-722	-816	-722	-686	-720	-688	-645	-641	-618	-573	-535	-524	-533	-508	-454	-429	-423	-416	-454	-499	-477	-425	-391	-380	-380	-378	-425	-497	-477	-414	-407	-407	-364	-315	-281	-274	-272	-238	-200	-189	-168	-139	-135	-139	-110	-72	-56	-63	-63	-54	-83
10:49:22.1140	599616273219688800	-130	-121	-92	-193	-391	-438	-351	-335	-353	-319	-276	-261	-238	-193	-164	-166	-162	-126	-87	-78	-78	-67	-47	-40	-29	9	27	-2	-9	31	58	24	-27	-36	-15	-22	-22	11	22	-18	-67	-144	-247	-272	-249	-288	-337	-360	-387	-398	-398	-425	-420	-375	-366	-378	-360
10:49:22.5330	599616273656889666	-344	-351	-344	-306	-261	-254	-294	-330	-333	-445	-618	-609	-533	-549	-531	-450	-414	-414	-375	-303	-256	-254	-249	-225	-216	-222	-209	-168	-139	-141	-139	-110	-92	-85	-51	-20	-49	-105	-42	333	931	1183	657	-229	-524	-150	6	-150	-148	-103	-191	-238	-200	-189	-180	-132	-108
10:49:22.9840	599616274094090536	-101	-49	-22	-63	-69	-11	-13	-146	-258	-218	-157	-150	-101	-45	-60	-69	2	90	139	173	207	209	186	148	96	13	-126	-249	-288	-297	-344	-400	-423	-456	-517	-517	-465	-450	-468	-468	-436	-405	-400	-384	-355	-378	-418	-400	-355	-344	-360	-364	-328	-290	-292	-274	-234
10:49:23.4290	599616274531291402	-234	-252	-290	-348	-353	-337	-342	-315	-362	-533	-591	-504	-495	-515	-441	-366	-360	-353	-312	-263	-243	-258	-247	-218	-222	-220	-168	-123	-114	-105	-83	-63	-54	-36	-2	15	-2	2	47	78	72	67	76	87	85	94	128	137	112	114	150	164	132	81	47	36	33
10:49:23.8540	599616274968461754	54	87	85	58	67	81	-22	-213	-265	-213	-222	-283	-324	-308	-276	-272	-245	-204	-207	-200	-173	-171	-171	-144	-101	-74	-81	-103	-130	-153	-168	-130	141	686	1093	895	114	-522	-371	-13	-58	-128	-40	-6	-11	2	2	22	67	83	78	90	108	119	128	159	184
10:49:24.2740	599616275405662620	173	166	191	184	146	141	171	162	49	-65	-20	58	40	51	119	130	81	24	-45	-119	-207	-328	-393	-396	-420	-418	-355	-319	-312	-281	-252	-252	-236	-186	-153	-180	-225	-200	-150	-141	-137	-112	-105	-121	-114	-74	-45	-58	-76	-58	-31	-31	-27	-9	-11	-29	-15
10:49:24.7240	599616275842863490	13	0	-72	-114	-94	-144	-348	-504	-486	-504	-607	-625	-571	-560	-580	-571	-533	-513	-504	-470	-441	-447	-445	-398	-362	-357	-353	-333	-312	-351	-409	-384	-339	-360	-362	-301	-256	-254	-245	-220	-202	-202	-220	-243	-247	-245	-231	-189	-141	-112	-90	-76	-81	-85	-72	-47	-51
10:49:25.1440	599616276280064356	-76	-58	-22	-13	-11	2	-4	-105	-301	-366	-112	391	834	774	92	-605	-560	-186	-245	-387	-272	-200	-216	-191	-175	-157	-119	-101	-85	-49	-38	-42	-15	31	65	69	67	49	-11	-36	22	76	83	112	180	247	292	310	317	306	249	175	130	69	-36	-128	-157
10:49:25.6190	599616276717265226	-164	-184	-211	-213	-213	-333	-501	-488	-409	-434	-432	-353	-301	-285	-263	-236	-211	-193	-171	-135	-119	-132	-128	-90	-76	-108	-121	-105	-99	-103	-78	-38	-36	-63	-47	-2	2	-9	6	18	6	6	36	63	47	-13	-94	-135	-123	-110	-103	-99	-99	-87	-54	-15	-15
10:49:26.0140	599616277154466092	-63	-92	-72	-56	-42	-2	-38	-218	-357	-310	-279	-339	-346	-292	-270	-270	-236	-200	-202	-202	-166	-126	-130	-148	4	495	1008	969	274	-481	-564	-218	-191	-335	-301	-308	-384	-380	-391	-434	-411	-393	-432	-425	-366	-342	-348	-337	-306	-281	-263	-234	-182	-153	-202	-243	-175
10:49:26.4640	599616277591636444	-101	-78	-31	20	-22	-162	-245	-249	-321	-432	-474	-495	-546	-582	-580	-578	-578	-555	-501	-447	-423	-414	-380	-333	-308	-283	-245	-222	-220	-202	-159	-128	-137	-150	-117	-76	-76	-78	-67	-110	-182	-173	-114	-108	-121	-105	-87	-78	-72	-56	-42	-65	-83	-56	-11	6	9
10:49:26.8840	599616278028837310	15	22	6	-20	-15	-58	-279	-492	-470	-380	-387	-398	-360	-333	-346	-362	-346	-288	-45	486	873	573	-337	-1008	-794	-420	-508	-585	-488	-517	-614	-587	-488	-405	-375	-427	-479	-389	-150	110	319	479	596	697	828	990	1129	1228	1356	1541	1705	1838	1982	2101	2236	2486	2675
10:49:27.3640	599616278466038180	2826	3012	3030	2965	2803	2506	2360	2326	2171	1923	1676	1381	1017	641	231	-218	-499	-517	-468	-427	-328	-218	-135	-9	220	558	1093	1984	3233	4646	6257	8375	10913	13568	16075	17976	18431	18431	18431	18431	18431	18431	18431	18431	18431	18431	18431	18431	18431	18431	18431	18431	18431	18431	18431	18431	18431
10:49:27.8090	599616278903269564	18431	18431	18431	18431	18431	18431	18431	18431	18431	18431	18431	18327	17366	16768	16043	14918	13852	12807	11498	10125	8953	7952	7020	6230	5906	5850	5222	4333	3942	3598	3055	2637	2254	1743	1206	798	598	459	225	-56	-375	-828	-1395	-1998	-2666	-3199	-3087	-2769	-3136	-3611	-3726	-3888	-4342	-5272	-5875	-5616	-5319
10:49:28.2340	599616279340470434	-5094	-4628	-4349	-4421	-4435	-3969	-2466	-1437	-2828	-3690	-2425	-2598	-4502	-5231	-4948	-4950	-4846	-4421	-4189	-4086	-3179	-1343	-798	-2236	-2751	-1685	-1428	-1953	-1869	-1944	-2067	-1417	-1602	-2700	-2196	-582	-132	-38	294	-452	-1766	-2434	-3046	-4727	-6556	-6509	-5220	-4376	-3571	-2454	-1939	-2234	-2553	-2263	-1689	-1482	-1464
10:49:28.6240	599616279777671300	-1338	-1300	-1352	-1325	-1296	-1368	-1440	-1415	-1408	-1593	-1710	-1599	-1581	-1644	-1602	-1541	-1514	-1476	-1406	-1298	-1203	-1152	-1041	-920	-897	-870	-713	-481	-153	319	756	668	177	1363	4147	4131	1251	947	2713	1302	-2169	-2913	-1145	-303	-675	-585	-315	-427	-454	-301	-256	-274	-236	-186	-146	-126	-146
10:49:29.1040	599616280214872170	-162	-135	-202	-398	-441	-312	-324	-402	-371	-344	-366	-360	-324	-306	-324	-342	-306	-272	-326	-380	-346	-308	-297	-274	-254	-231	-213	-193	-159	-148	-168	-164	-146	-159	-180	-166	-128	-123	-171	-191	-159	-148	-173	-171	-155	-175	-198	-180	-144	-139	-216	-306	-274	-227	-254	-243	-213
10:49:29.5240	599616280652073036	-238	-254	-213	-177	-182	-200	-195	-180	-306	-506	-481	-382	-438	-459	-380	-396	-463	-461	-438	-445	-481	-515	-515	-558	-643	-677	-672	-666	-659	-657	-641	-621	-618	-596	-553	-555	-589	-560	-504	-499	-510	-495	-474	-459	-432	-382	-348	-378	-418	-387	-344	-362	-373	-346	-339	-348	-342
10:49:30.0300	599616281089243388	-346	-371	-420	-522	-553	-380	-74	261	362	-186	-969	-987	-517	-481	-645	-555	-454	-463	-447	-391	-364	-364	-355	-317	-272	-249	-258	-252	-207	-173	-162	-128	-126	-191	-198	-119	-67	-51	-29	6	51	90	114	157	182	150	119	110	60	-40	-132	-173	-191	-216	-225	-193	-184
10:49:30.3940	599616281526444254	-213	-202	-148	-130	-139	-139	-130	-141	-191	-236	-245	-380	-643	-686	-576	-621	-695	-681	-672	-672	-654	-616	-578	-582	-603	-567	-515	-513	-515	-486	-472	-477	-459	-418	-389	-405	-418	-382	-339	-344	-378	-389	-375	-378	-369	-326	-303	-330	-348	-312	-288	-297	-285	-270	-294	-310	-285
10:49:30.8440	599616281963645124	-261	-263	-288	-301	-290	-387	-600	-650	-544	-560	-607	-544	-492	-510	-546	-589	-607	-585	-569	-573	-648	-762	-749	-659	-641	-663	-663	-643	-625	-623	-616	-582	-580	-621	-612	-562	-553	-580	-591	-580	-562	-553	-533	-506	-526	-587	-616	-641	-702	-724	-697	-693	-711	-706	-672	-648	-677
