11:50:10.3240	599616014172086171	19097	19097	19097	19097	19097	19097	19097	19097	19097	19097	19097	19097	19097	19097	19097	19097	19097	19097	19097	19097	19097	19097	19097	19097	19097	19097	19097	19097	19097	19097	19097	19097	19097	19097	19097	19097	19097	19097	19097	19097	19097	19097	19097	19097	19097	19097	19097	19097	19097	19097	19097	19097	19097	19097	19097	19097	19097	19097	19097	19097	19097	19097	19097	19097	19097	19097	19097	19097	19097	19097	19097	19097	19097
11:50:10.9230	599616014736877710	19097	19097	19097	19097	19097	19097	19097	19097	19097	19097	19097	19097	19097	19097	19097	19097	19097	19097	19097	19097	19097	19097	19097	19097	19097	19097	19097	19097	19097	19097	19097	19097	19097	19097	19097	19097	19097	19097	19097	19097	19097	19097	19097	19097	19097	19097	19097	19097	19097	19097	19097	19097	19097	19097	19081	19097	19097	19088	19097	19097	19097	19023	18880	18771	18708	18927	19076	18911	18740	18556	18388	18430	18622
11:50:11.4310	599616015301679423	18691	18430	18125	17880	17495	17227	17428	17936	18214	18318	18465	18113	17649	18022	18363	17745	17269	17549	17673	17402	17281	17376	17353	17211	17346	17502	17167	16850	16938	17015	16924	16810	16752	16775	16735	16633	16756	16917	16747	16581	16724	16899	16882	16696	16584	16595	16477	16351	16458	16488	16248	16150	16276	16262	16131	16129	16201	16127	15903	15856	16015	15999	15859	15882	15966	16122	16115	15714	15502	15553	15437	15402	15546
11:50:12.0010	599616015866460790	15474	15311	15353	15376	15294	15320	15672	15847	15234	14760	14994	15066	14826	14763	14861	14940	14877	14763	14795	14756	14586	14590	14693	14672	14600	14586	14770	15038	14963	14819	14791	14530	14208	14000	13951	14082	14110	14061	14133	14108	13826	13466	13149	13117	13875	14882	14966	14604	14537	14429	14271	14187	14070	13900	13700	13693	13928	14171	14259	14180	14140	14136	13958	13835	13900	13928	13786	13618	13641	13707	13590	13543	13634
11:50:12.5420	599616016431242157	13590	13450	13432	13546	13606	13616	13735	13886	13718	13252	13198	13420	13231	13000	13145	13287	13168	13021	13000	13030	12977	12846	12828	12814	12667	12604	12599	12576	12611	12676	12709	12662	12627	12634	12643	12592	12452	12448	12536	12410	12235	12224	12224	12179	12131	12126	12228	12228	12058	12133	12308	12086	11853	11946	11993	11902	11848	11874	11953	11911	11734	11711	11732	11538	11517	11774	11643	11247	11280	11585	11662	11480	11382
11:50:13.1880	599616016996054042	11471	11543	11538	11464	11210	10690	10387	10857	11545	11594	11198	11107	11293	11214	11046	11158	11203	11007	10972	11100	11102	11004	10941	10913	10874	10813	10783	10816	10841	10722	10550	10557	10594	10524	10503	10517	10484	10468	10566	10669	10524	10524	10857	10757	10384	10428	10587	10498	10310	10298	10438	10447	10310	10230	10240	10151	10025	10002	10006	10020	10020	9995	9988	10046	10114	10104	10081	10037	9946	9944	9997	9862	9696
11:50:13.7410	599616017560835409	9743	9787	9720	9678	9808	9892	9002	7370	6978	8097	9482	9932	8556	7486	8279	8759	8708	9382	9468	8610	8221	8223	8461	9797	11098	10477	9515	9902	10226	9766	9561	9724	9738	9720	9631	9356	9228	9242	9253	9263	9027	8549	8134	8092	8577	9151	9267	9062	9002	9016	8813	8666	8848	8929	8610	7689	6810	7321	8085	8078	8367	8622	8195	7654	7722	8337	8311	7551	6894	6759	7169	7388	7309
11:50:14.2810	599616018125616776	7442	7815	8384	8391	7521	7279	7992	8519	8214	7458	7356	7607	7572	7698	7778	7500	7512	7752	7605	7421	7547	7617	7519	7479	7561	7680	7614	7395	7397	7507	7451	7437	7537	7549	7495	7596	7757	7719	7586	7558	7593	7600	7554	7549	7680	7640	7209	6966	7356	7887	7871	7321	7036	7171	7015	6824	7045	7120	7090	7453	7717	7519	7425	7414	7288	7407	7456	7267	7239	7202	7045	6913	6805
11:50:14.8340	599616018690398143	6875	6999	6959	6843	6551	6124	6015	6367	6941	7411	7486	7307	7192	7085	6735	6360	6607	7038	6787	6528	6749	6733	6556	6635	6686	6619	6579	6530	6495	6523	6514	6446	6416	6346	6178	6131	6246	6306	6407	6649	6707	6477	6372	6577	6700	6495	6311	6330	6369	6365	6320	6297	6330	6346	6334	6334	6320	6302	6281	6253	6285	6292	6208	6215	6290	6234	6162	6201	6213	6162	6131	6157	6199
11:50:15.5880	599616019255179510	6169	6096	6108	6150	6113	6094	6199	6250	6106	6038	6092	6015	5926	5945	5975	5968	5973	6481	7507	7673	6903	6728	6999	6759	6330	6318	6386	6397	6623	6626	6486	6642	6663	6430	5663	4180	4292	6113	6532	6253	6558	6271	5791	5714	5460	5290	5504	5600	5565	5826	6101	5912	5789	6134	6430	6367	6162	6323	6787	6740	6393	6358	6297	6115	5875	5826	6341	6542	6201	6176	6297	6220	6208
11:50:15.9610	599616019819991395	6276	6250	6225	6201	6134	6076	5987	5936	5936	5889	5961	6082	5961	5772	5754	5784	5651	5511	5509	5430	5460	5709	5702	5535	5516	5504	5556	5612	5511	5355	5266	5357	5509	5623	5775	5691	5418	5434	5567	5539	5308	4980	5364	6052	5786	5467	5695	5502	5024	4520	3758	3660	4301	4553	4747	5539	6169	6055	5761	5532	5364	5565	5749	5257	4488	4311	4872	5635	5866	5539	5285	4758	4236
11:50:16.5010	599616020384772762	4975	5870	5630	5360	5385	5024	4714	4868	5040	4924	4816	4984	5197	5215	5157	5164	5136	5057	5015	4973	4933	4914	4872	4914	5040	5052	4996	5057	5106	5008	4954	5008	5005	4952	4949	4987	4994	4914	4851	4886	4868	4791	4793	4814	4791	4777	4775	4742	4707	4686	4700	4728	4691	4637	4663	4681	4642	4639	4660	4677	4644	4539	4478	4436	4390	4425	4462	4450	4434	4429	4450	4432	4329
11:50:17.1020	599616020949554129	4255	4257	4252	4166	4075	4115	4283	4511	4607	4530	4448	4345	4446	4660	4495	4334	4495	4450	3961	3450	3369	3641	3963	4427	4702	4425	4206	4259	4213	4143	4185	4213	4192	4152	4059	4024	4084	4049	4000	4063	4054	3909	3856	3954	4005	3926	3875	3914	3891	3840	3882	3916	3961	3954	3695	3534	3844	4178	4171	4075	4056	4038	4014	4000	3942	3809	3700	3758	3851	3786	3711	3700	3618
11:50:17.6760	599616021514335496	3415	3411	3644	3478	2970	2753	2996	3478	3870	3868	3541	3210	3063	3038	2937	2821	2991	3091	2646	2135	2000	2191	2385	2515	2912	3539	3814	3469	3275	3616	3786	3541	3418	3625	3709	3553	3532	3583	3480	3508	3695	3578	3366	3385	3128	2734	3035	3310	2720	2016	1508	1128	1450	2839	4355	4490	3728	3439	3527	3536	3432	3243	3038	2811	2718	2867	2853	2664	2711	2816	2774	2783	2830
11:50:18.2130	599616022079116863	2802	2790	2797	2765	2739	2767	2828	2870	2863	2804	2758	2881	3105	3142	3147	3292	3219	3003	2956	2891	2751	2788	3005	3138	3105	3093	3131	3110	3072	3093	3068	2949	2846	2851	2942	2949	2839	2758	2793	2879	2807	2685	2723	2751	2718	2688	2557	2546	2783	2863	2744	2741	2795	2751	2699	2716	2725	2704	2690	2692	2709	2690	2627	2602	2657	2704	2695	2683	2692	2695	2678	2699	2718
11:50:18.7820	599616022643898230	2646	2590	2669	2779	2706	2301	1809	1776	2210	2741	3138	3126	2818	2618	2588	2629	2671	2664	2678	2713	2681	2618	2345	1895	1872	2175	2217	2156	2224	2284	2266	2189	2145	2186	2226	2228	2240	2284	2343	2392	2441	2506	2539	2527	2532	2576	2602	2595	2578	2564	2546	2532	2564	2636	2711	2755	2725	2669	2650	2643	2627	2604	2602	2592	2625	2916	3168	2928	2734	2989	3138	3175	3303
11:50:19.3340	599616023208679597	3051	2595	2308	1851	1522	1895	2751	3313	2760	2212	2942	3280	2727	2646	2634	2310	2149	2098	2312	2762	2811	2618	2664	2699	2625	2676	2667	2655	2884	2935	2746	2758	2888	2996	3147	3226	3140	2811	2326	2100	2301	2865	3327	3294	3483	3842	3618	3313	3294	3222	3082	3003	2977	2963	2949	3026	3077	2954	2881	2930	2874	2802	2849	2860	2856	2865	2748	2667	2678	2690	2790	2863	2849
11:50:19.8910	599616023773430446	2839	2790	2832	2956	2970	2842	2657	2569	2560	2599	2683	2590	2317	2459	2984	3012	2744	2795	2846	2706	2643	2436	568	-1762	-1049	634	468	384	972	1051	988	1214	1317	1296	1375	1452	1466	1494	1545	1580	1590	1594	1625	1664	1674	1664	1674	1695	1699	1704	1730	1748	1734	1730	1760	1783	1771	1769	1778	1760	1743	1769	1841	2163	3336	4250	2881	1224	1606	2063	1615	1797	2888
11:50:20.4930	599616024338211813	3604	2961	2550	3366	3380	2916	3243	3175	2930	3364	3441	3003	2949	3035	2912	2907	2954	2858	2776	2730	2636	2513	2422	2448	2459	2378	2345	2340	2291	2289	2294	2240	2247	2256	2235	2343	2429	2259	2121	2282	2345	2138	2028	2096	2082	1872	1690	1674	1604	1515	1499	1475	1583	1702	1671	1632	1534	1405	1231	983	1028	704	139	1018	1536	624	1088	2021	1200	694	1266	923	345
11:50:21.0340	599616024902962662	830	1240	1053	1016	1566	1872	1030	517	1049	1240	1030	1049	1128	1200	1333	1282	1144	1270	1294	1091	1128	1240	1179	1175	1259	1277	1233	1240	1284	1280	1259	1273	1321	1377	1275	874	426	380	955	1690	1790	1433	1380	1634	1718	1520	1394	1377	1231	1142	1252	1291	1235	1233	1233	1193	1168	1163	1144	1128	1126	1098	1058	1053	1032	1004	1049	1130	1168	1196	1268	1328	1342
11:50:21.6010	599616025467744029	1361	1503	1669	1524	1184	1119	1256	1212	1093	1130	1170	1112	1086	1133	1137	1093	1079	1095	1093	1065	1056	1077	1074	1049	1042	1044	1035	1023	1025	1021	1018	1014	1007	1011	1011	1000	1004	1011	1009	1042	1093	1135	1121	979	969	1228	1203	1039	1510	1713	1044	652	892	1268	1228	762	778	1466	1785	1494	1002	643	1018	1328	927	1039	1256	704	785	1303	1217	1384	1736
11:50:22.1720	599616026032525396	1531	1207	1161	1226	1210	948	708	746	746	706	827	934	641	139	209	638	741	885	1860	2800	2518	2112	2203	1925	1513	1667	1972	2047	2191	2298	2247	2259	2210	2047	1832	1478	1231	1203	1231	1377	1650	1848	1830	1748	1753	1783	1972	2007	1466	1401	2030	1960	1611	1809	1813	1531	1527	1636	1571	1503	1529	1534	1517	1524	1534	1545	1564	1541	1492	1531	1576	1557	1639
11:50:22.7110	599616026597306763	1825	1874	1748	1664	1590	1480	1517	1653	1548	1070	578	512	983	1683	2082	1928	1534	1121	559	198	361	545	515	573	706	771	806	841	851	792	606	335	363	865	1151	795	-158	-1128	-559	809	874	356	247	62	466	1720	1972	1214	1158	1331	1016	862	920	902	741	153	-69	417	366	74	-9	-200	123	452	25	-191	109	200	226	445	435	237	282
11:50:23.2810	599616027162088130	412	380	368	431	424	333	305	373	366	272	235	251	249	226	221	235	240	247	254	214	144	116	158	235	284	123	-331	-774	-767	-184	578	844	545	321	401	422	326	305	345	354	342	340	349	319	263	254	275	298	331	310	289	342	314	261	419	650	694	510	293	307	435	470	498	540	510	461	459	447	424	438	468	482	473
11:50:23.8900	599616027726869497	473	487	489	498	515	503	442	415	466	508	505	494	489	510	512	468	431	438	454	484	564	573	459	452	540	522	491	522	503	454	503	634	669	573	515	540	585	592	426	11	-387	-321	249	851	1018	788	592	627	662	596	573	587	587	582	571	564	547	515	526	624	690	673	694	657	557	540	536	470	394	279	209	331	461
11:50:24.4230	599616028291620346	477	512	550	568	615	650	655	655	636	774	1207	1398	1116	930	927	941	897	955	1212	1081	671	662	767	508	209	242	410	613	722	622	608	529	422	573	631	561	608	638	550	491	627	851	1014	1242	1228	993	1217	1168	557	384	552	445	-114	-643	-575	-114	384	706	641	454	524	603	468	403	519	533	435	459	508	447	408	424	401
11:50:24.9930	599616028856401713	363	345	310	237	188	207	174	86	48	60	79	114	156	200	251	277	286	298	303	296	277	256	249	244	209	179	193	209	186	165	163	149	144	149	121	109	163	198	205	226	158	53	118	153	2	4	135	83	-25	-18	6	-9	-18	-4	6	2	-16	-27	-25	-20	-6	-27	-72	-62	-165	-606	-1074	-1053	-496	111	242	-20	-184
11:50:26.6730	599616029421183080	-107	-55	-165	-233	-228	-305	-356	-361	-435	-440	-340	-317	-368	-384	-405	-456	-475	-477	-498	-503	-482	-473	-454	-424	-412	-370	-291	-247	-240	-219	-209	-226	-233	-216	-214	-242	-270	-319	-389	-401	-361	-342	-356	-384	-370	-314	-324	-366	-349	-349	-405	-389	-314	-312	-361	-363	-331	-319	-321	-310	-305	-319	-324	-317	-296	-270	-282	-305	-279	-272	-298	-282	-254
11:50:26.8630	599616029985933929	-216	-244	-552	-1023	-1207	-855	-219	135	-39	-310	-286	-198	-256	-291	-216	-170	-207	-254	-272	-312	-331	-282	-307	-394	-373	-331	-363	-373	-300	-221	-191	-226	-291	-319	-261	-167	-151	-114	-2	-48	-186	-111	0	-53	-86	-55	-53	-72	-86	-107	-109	-116	-137	-121	-86	-104	-139	-130	-114	-149	-184	-165	-128	-116	-137	-153	-158	-207	-275	-307	-307	-293	-272
11:50:27.6460	599616030550715296	-254	-223	-172	-163	-242	-326	-321	-314	-354	-340	-254	-226	-445	-916	-1268	-1100	-468	100	153	-93	-174	-121	-149	-184	-172	-179	-193	-200	-240	-263	-237	-226	-249	-270	-272	-279	-300	-319	-321	-326	-349	-354	-314	-293	-296	-261	-202	-160	-142	-121	-114	-135	-123	-4	191	163	-58	-116	-160	-300	-361	-370	-340	-286	-303	-349	-347	-331	-335	-321	-300	-310	-312
11:50:27.6930	599616031115496663	-270	-258	-326	-377	-361	-368	-433	-445	-403	-429	-463	-417	-373	-384	-398	-387	-377	-382	-387	-345	-310	-510	-955	-1291	-1172	-589	0	76	-170	-258	-233	-282	-314	-305	-307	-293	-272	-319	-361	-307	-216	-170	-221	-382	-526	-512	-408	-366	-375	-333	-291	-265	-233	-310	-247	-79	-282	-429	-88	137	-116	-307	-125	-69	-200	-137	-123	-247	-237	-230	-268	-158	-86
11:50:27.8240	599616031680278030	-214	-298	-265	-237	-219	-207	-228	-237	-237	-247	-209	-123	-116	-160	-109	-156	-349	-361	-263	-249	-214	-163	-200	-219	-130	-107	-146	46	221	-219	-860	-1049	-979	-687	-32	438	242	60	195	-11	-249	-109	-41	72	319	2	-503	-296	79	79	-79	-279	-289	-144	-226	-310	-235	-491	-830	-645	-380	-401	-352	-37	167	-123	-382	-219	-170	-282	-223	-181	-242
11:50:28.3820	599616032245028879	-249	-219	-214	-214	-205	-195	-198	-240	-279	-242	-198	-212	-209	-179	-184	-202	-191	-174	-181	-191	-179	-151	-137	-121	-72	4	69	-34	-200	-132	-51	-132	-132	-146	-226	-179	-81	-67	-132	-310	-554	-634	-342	296	1177	1646	1140	387	-345	-988	-820	-370	-310	-200	-144	-382	-410	-251	-205	-151	158	892	683	-764	-1025	-326	-111	557	904	-228	-953	-447	345
11:50:28.9530	599616032809810246	711	818	1468	1797	1517	1664	1671	918	424	638	725	475	247	67	-237	-911	-1354	-470	699	552	177	517	550	195	475	932	627	319	559	720	552	401	328	177	422	503	-575	-1436	-433	993	725	116	233	277	613	871	512	354	519	415	9	-466	-699	-391	237	666	648	477	470	461	277	25	-282	-370	-401	-1214	-1804	-1100	-578	-888	-934	-687	-697
11:50:29.4930	599616033374591613	-725	-697	-816	-594	135	18	-832	-690	-412	-804	-613	-156	-275	-312	-107	-116	-177	-153	-240	-230	27	-86	-538	-531	-251	-107	258	533	-6	-13	1023	986	291	359	429	279	132	81	-6	-422	-368	177	90	-200	-198	-496	-634	-174	149	-41	-561	-885	-636	-405	-461	-415	-270	-116	219	545	321	-177	-172	195	305	-51	-641	-1009	-871	-382	-121	-310	-387
11:50:30.0630	599616033939342462	-214	-181	-251	-228	-144	230	809	746	254	-242	-858	-424	825	904	338	352	289	-37	-65	67	93	62	-67	-377	-543	-419	-382	-503	-809	-1018	-750	-501	-449	-139	55	-328	-587	-401	-403	-561	-468	-342	-307	-219	-184	-249	-307	-328	-284	-240	-254	-244	-216	-263	-384	-384	-181	-158	-394	-359	-179	-307	-433	-359	-335	-352	-326	-333	-340	-286	-303	-391	-331
11:50:30.6630	599616034504123829	-184	-209	-275	-258	-328	-403	-377	-356	-452	-755	-1163	-1282	-853	-177	130	-72	-282	-275	-265	-307	-331	-345	-356	-354	-321	-228	-111	-135	-349	-438	-242	-214	-508	-599	-279	-118	-384	-608	-596	-543	-561	-561	-470	-389	-368	-345	-305	-272	-268	-275	-282	-291	-305	-310	-300	-293	-305	-328	-342	-331	-321	-333	-363	-389	-373	-340	-328	-317	-314	-319	-305	-291	-298
11:50:31.2340	599616035068874678	-296	-286	-296	-303	-286	-277	-305	-328	-321	-312	-338	-375	-349	-293	-303	-324	-310	-310	-303	-237	-135	-216	-589	-990	-1114	-725	79	594	552	685	708	184	-95	-335	-671	-466	-212	-305	-163	554	1007	606	165	13	282	913	764	-11	-580	-988	-927	-284	305	198	-445	-666	-531	-722	-904	-699	-503	-529	-522	-431	-396	-391	-370	-352	-352	-345	-326	-310	-303
11:50:31.8030	599616035633656045	-303	-291	-256	-228	-244	-261	-254	-277	-291	-256	-242	-291	-338	-319	-293	-307	-305	-277	-263	-263	-244	-223	-233	-251	-251	-249	-249	-244	-233	-216	-212	-228	-230	-209	-177	-149	-261	-662	-1140	-1235	-767	-81	209	-13	-195	-109	-88	-184	-219	-205	-212	-221	-207	-207	-226	-237	-233	-235	-247	-251	-249	-263	-296	-317	-261	-149	-172	-291	-263	-172	-172	-144	-13
11:50:32.3230	599616036198406894	384	1098	862	-475	-671	39	-69	-317	-130	-114	-221	-195	-219	-265	-191	-121	-137	-144	-132	-83	27	-44	209	1217	1809	1464	1039	1156	1347	1114	834	694	538	331	121	-209	-804	-946	-694	-706	-198	391	93	-191	104	515	622	650	855	820	587	564	242	-319	-214	-83	-447	-83	851	764	174	244	368	275	405	498	307	149	109	11	-72	-111	-128
11:50:32.8840	599616036763188261	39	226	193	67	-51	-186	-321	-380	-422	-634	-960	-955	-578	-445	-575	-613	-1016	-1105	473	1370	-512	-1895	-941	-461	-1051	-1032	-690	-676	-536	-107	-188	-778	-781	-480	-529	-554	-475	-463	-456	-424	-424	-449	-466	-456	-417	-394	-394	-382	-370	-359	-338	-331	-352	-363	-347	-370	-412	-382	-352	-377	-384	-361	-361	-363	-338	-314	-310	-314	-305	-291	-291	-293	-240
11:50:33.4530	599616037327969628	-200	-412	-881	-1228	-1109	-571	-32	62	-165	-235	-184	-242	-293	-261	-258	-282	-279	-279	-289	-291	-293	-314	-338	-370	-412	-422	-405	-403	-412	-412	-403	-408	-412	-389	-361	-272	-144	-139	-223	-240	-216	-205	-177	-72	9	-163	-408	-377	-263	-298	-324	-282	-291	-319	-303	-291	-305	-291	-289	-347	-347	-296	-284	-286	-289	-298	-300	-296	-293	-282	-226	-90	-6
11:50:34.0530	599616037892720477	-37	13	58	23	6	-293	-671	-582	-405	-468	-494	-442	-438	-452	-459	-489	-517	-470	-380	-277	-60	277	620	599	100	-247	-580	-1210	-1342	-1158	-1025	-417	-4	-326	-526	-370	-354	-435	-417	-394	-417	-422	-408	-408	-412	-429	-438	-429	-431	-449	-466	-477	-489	-503	-505	-491	-487	-491	-466	-419	-387	-352	-303	-265	-242	-230	-268	-319	-314	-312	-335	-333	-333
11:50:34.5930	599616038457501844	-352	-349	-352	-366	-363	-345	-340	-363	-408	-412	-396	-440	-468	-424	-422	-422	-247	-34	-123	-347	-296	-188	-282	-324	-265	-312	-417	-422	-293	-237	-417	-384	20	167	37	16	2	-156	-256	-118	-6	-179	-401	-296	-149	-275	-610	-1268	-1643	-1046	-324	-205	-170	-135	-300	-352	-303	-345	-356	-317	-338	-380	-394	-394	-333	-125	72	11	-97	-2	263	219	-494
11:50:35.1630	599616039022252693	-918	-470	4	-51	-447	-750	-599	-408	-613	-643	-377	-296	-417	-473	-380	-312	-370	-419	-433	-403	-230	-144	-223	-219	-184	-247	-277	-256	-263	-291	-319	-333	-331	-317	-314	-333	-377	-470	-468	-340	-363	-456	-424	-415	-415	-342	-352	-435	-442	-449	-477	-494	-617	-683	-550	-498	-531	-480	-449	-461	-431	-361	-354	-566	-1002	-1366	-1277	-662	-37	16	-261	-324	-249
11:50:35.7050	599616039587034060	-296	-359	-328	-314	-340	-359	-380	-389	-424	-482	-466	-429	-461	-482	-459	-463	-491	-494	-352	-181	-191	-158	-146	-331	-405	-382	-375	-165	-9	-165	-123	32	-135	-207	-9	261	433	272	130	307	270	-328	-802	-631	-412	-473	-454	-363	-380	-384	-338	-335	-340	-314	-310	-324	-314	-321	-354	-349	-317	-312	-310	-296	-284	-286	-314	-324	-282	-282	-340	-349	-326
11:50:36.2730	599616040151784909	-380	-340	55	394	-48	-405	58	-55	-622	-613	-988	-1461	-725	58	-223	-307	184	18	-442	-289	-139	-293	-300	-230	-275	-298	-270	-282	-326	-340	-326	-324	-291	86	508	277	-214	-293	-179	-620	-1123	-692	-212	-340	11	1030	1252	559	359	624	552	375	137	-303	-440	-230	-179	-254	-207	-181	-240	-156	158	545	424	-603	-1149	76	1133	480	-60	230	244
11:50:36.8430	599616040716535758	88	156	146	30	46	104	72	130	258	100	-263	-559	-820	-955	-878	-631	-319	-312	-589	-459	310	774	219	-356	-282	-181	-163	-18	104	142	25	-345	-804	-1014	-729	-114	237	102	-30	69	90	2	-27	-114	-603	-1119	-477	433	65	-345	-53	-41	-256	-303	-442	-585	-382	-125	-736	-1697	-1317	-540	-781	-1116	-916	-727	-685	-377	-102	-405	-664	-505	-473
11:50:37.4430	599616041281286607	-568	-522	-477	-508	-491	-454	-498	-559	-538	-526	-557	-531	-482	-473	-482	-480	-463	-449	-449	-447	-408	-354	-335	-307	-41	249	-58	-477	-296	-88	-188	-223	-219	-352	-132	468	666	109	-620	-645	-559	-802	-603	-361	-519	-470	-398	-603	-610	-475	-503	-522	-463	-435	-422	-387	-380	-398	-391	-363	-233	60	-13	-671	-1154	-1277	-1245	-741	-48	53	-244	-275	-174
11:50:37.9830	599616041846037456	-249	-312	-279	-284	-310	-296	-247	-188	-181	-198	-167	-193	-272	-272	-247	-312	-480	-634	-608	-389	65	466	417	734	1352	1018	561	543	258	-2	-18	-209	-620	-743	-491	-256	123	519	368	41	16	-69	-331	-671	-1070	-976	-209	41	-699	-554	237	-394	-1067	-669	-247	130	233	-170	-300	116	452	314	135	90	6	-275	-832	-986	-645	-543	-596	-489	-394
11:50:38.5530	599616042410788305	-424	-449	-422	-380	-363	-382	-389	-359	-375	-408	-375	-342	-349	-345	-338	-347	-349	-352	-338	-223	-97	-261	-489	-100	53	-634	-645	-244	-461	-781	-1240	-1660	-1291	-484	9	286	314	177	398	449	237	-51	-629	-837	-764	-874	-797	-643	-669	-669	-624	-645	-657	-643	-676	-706	-676	-645	-629	-589	-533	-454	-366	-326	-303	-265	-284	-338	-296	-223	-258	-293	-284
11:50:39.0930	599616042975569672	-361	-498	-487	-303	-242	-389	-515	-538	-554	-620	-564	-415	-377	-370	-354	-373	-387	-394	-333	104	699	575	-86	-319	-186	-265	-517	-862	-1065	-865	-683	-720	-692	-550	-410	-380	-454	-482	-375	-200	-170	23	522	454	18	102	198	-146	-195	9	-373	-734	-170	310	-193	-603	-256	-223	-892	-1200	-993	-934	-767	-629	-1287	-1725	-1007	-435	-690	-871	-655	-452	-508
11:50:39.6930	599616043540320521	-666	-503	-104	-97	-578	-1100	-1235	-969	-846	-962	-937	-851	-876	-899	-862	-839	-834	-804	-732	-608	-568	-666	-573	-167	373	652	97	-764	-666	62	300	261	2	-599	-524	-90	-678	-1359	-948	-613	-855	-874	-865	-1030	-983	-871	-895	-897	-853	-818	-790	-769	-767	-764	-743	-713	-694	-680	-680	-701	-701	-673	-657	-480	-60	-107	-389	324	750	46	20	438	184
11:50:40.2330	599616044105101888	-30	67	-25	-244	-277	-237	-459	-1109	-2124	-2788	-2434	-1517	-587	242	354	-172	-282	-111	-2	156	65	-198	-207	67	20	-307	-275	-142	-303	-480	-496	-571	-655	-554	-659	-934	-657	-384	-739	-778	-538	-694	-890	-958	-920	-613	-589	-1273	-1594	-1170	-713	-214	135	-25	-487	-1093	-1429	-1415	-1471	-1370	-972	-615	-307	125	226	-132	95	368	-729	-1438	-51	953	221
11:50:40.8330	599616044669852737	-156	111	-212	-865	-1004	-1142	-1818	-1874	-1349	-1321	-1307	-1035	-582	268	592	-72	-508	-645	-923	-156	263	-1732	-3254	-2683	-2131	-1750	-1004	-809	-1123	-1126	-988	-1025	-1032	-986	-1002	-997	-958	-960	-986	-972	-944	-960	-979	-962	-967	-1000	-1016	-1032	-1074	-1121	-1121	-1070	-1035	-1016	-962	-916	-904	-876	-823	-788	-769	-767	-769	-764	-792	-823	-797	-776	-792	-818	-825	-795	-774
11:50:41.3730	599616045234603586	-811	-834	-804	-785	-809	-804	-764	-776	-818	-809	-790	-832	-862	-837	-825	-820	-788	-783	-806	-811	-792	-755	-748	-757	-732	-722	-748	-750	-722	-666	-643	-867	-1349	-1678	-1459	-818	-312	-328	-592	-659	-599	-582	-578	-603	-643	-655	-692	-753	-783	-774	-778	-795	-778	-769	-809	-837	-846	-860	-867	-851	-825	-825	-837	-823	-776	-692	-629	-629	-636	-634	-648	-673	-680
11:50:41.9430	599616045799354435	-680	-690	-687	-673	-678	-685	-680	-699	-760	-778	-725	-699	-722	-722	-692	-683	-694	-680	-662	-671	-676	-659	-645	-641	-643	-650	-662	-671	-666	-648	-655	-673	-664	-636	-624	-629	-650	-671	-617	-545	-704	-1179	-1646	-1648	-1079	-394	-179	-389	-512	-468	-489	-552	-557	-543	-568	-594	-566	-473	-118	1077	2385	2256	1291	-139	-2000	-2294	-1161	-275	979	1527	1170	2224	2650
11:50:42.4830	599616046364105284	1496	916	624	1179	2438	2124	1238	1403	1531	1142	902	881	715	440	265	319	480	373	-123	-438	-494	-934	-855	-1032	-3490	-4621	-1256	2403	2284	296	-214	433	543	515	795	275	-1391	-2779	-1702	944	1247	135	533	885	326	221	426	293	72	-221	-659	-755	-270	380	655	417	146	221	331	298	307	261	104	86	172	181	193	303	310	146	69	18	-123
11:50:43.0530	599616046928856133	-163	-359	-958	-1394	-1429	-1137	-135	846	697	270	349	307	163	291	359	258	242	244	135	39	32	-4	-128	-212	-179	-191	-256	-282	-359	-461	-410	-261	-270	-338	-382	-575	-799	-760	-620	-1035	-1627	-1531	-1331	-1466	-1361	-1042	-878	-690	-440	-403	-324	118	608	855	778	487	377	440	300	-153	-645	-797	-461	79	319	167	-9	-153	-319	-305	-181	-184	-144
11:50:43.5930	599616047493606982	34	13	-177	-200	-163	-179	-184	-303	-468	-503	-767	-1354	-1298	-631	-732	-1342	-1867	-1986	-1723	-2140	-1788	-1433	-2284	-1685	-1345	-1324	338	205	-463	1000	1256	261	557	958	401	-955	-3275	-4157	-2655	-1972	-2359	-2026	-1615	-1662	-1478	-116	1695	1405	123	-109	-762	-1443	-102	1545	1065	256	293	-431	-1587	-823	1165	965	-93	300	298	-834	-1538	-1161	-927	-1347	-1011	-655	-1494
11:50:44.2220	599616048058357831	-1538	-711	-760	-958	-599	-470	-844	-1291	-1576	-1475	-799	-39	25	-298	-20	645	380	-522	-643	-48	508	960	1247	979	571	-228	-976	-1175	-1979	-1585	-216	-349	-790	-1056	-1098	-1219	-2504	-2823	-1855	-1629	-1450	-1268	-1492	-1287	-1009	-1135	-1105	-888	-911	-1060	-1116	-983	-834	-988	-1095	-951	-937	-1063	-1044	-927	-904	-918	-885	-858	-851	-834	-811	-790	-790	-802	-785	-750	-743
11:50:44.7630	599616048623108680	-750	-760	-785	-795	-776	-760	-739	-732	-741	-725	-701	-748	-804	-767	-720	-736	-736	-694	-676	-690	-690	-666	-652	-657	-659	-657	-669	-687	-692	-678	-676	-687	-673	-634	-620	-627	-613	-601	-615	-412	1072	2923	2217	296	219	955	1196	1468	1403	930	834	869	718	643	557	433	415	300	233	307	118	-200	-102	81	-90	37	53	-1771	-3835	-3245	-1739	-834	46
11:50:45.3330	599616049187859529	-489	-1186	410	1317	-303	-1466	-1128	-226	951	1186	561	540	-389	-2492	-2599	-1541	-1881	-1981	-1098	-174	536	582	410	286	39	-387	-1415	-2226	-1760	-918	-359	200	-72	-990	-774	-251	-452	-163	107	-356	-380	137	-146	-1301	-1825	-1510	-1352	-1321	-1154	-1058	-1025	-962	-802	-426	-254	-505	-578	-433	-454	-587	-529	149	783	-132	-1403	-1084	-384	-186	48	-118	-650	-767	-81
11:50:45.8730	599616049752610378	1354	1811	491	-293	132	240	44	198	680	373	-748	-771	-293	-314	-529	-1366	-2058	-1326	-603	-1282	-1732	-858	983	2401	1387	-491	-319	837	1098	1212	1396	1091	736	30	-321	419	207	-1368	-1608	596	1825	575	11	615	750	585	578	459	212	310	580	482	200	102	237	345	-104	-729	-631	-382	-153	249	11	-277	-370	-435	139	305	-237	-244	13	-16	151
11:50:46.4430	599616050317361227	403	170	13	268	333	170	46	-690	-2301	-1697	960	764	-352	529	699	25	139	312	104	109	198	76	-46	-32	-76	-214	-79	135	25	-95	-27	2	-25	-55	-104	-53	41	-44	-144	-95	-69	-104	-83	-95	-165	-156	-125	-179	-193	-156	-233	-463	-837	-1074	-774	-139	195	25	-165	-100	-76	-153	-139	-93	-125	-179	-340	-594	-589	-445	-468	-387	-165
11:50:46.9830	599616050882081558	-163	-256	-303	-403	-468	-496	-543	-559	-781	-1114	-648	191	-755	-3194	-3327	-1072	-652	-1520	-1074	-676	-676	643	1743	913	359	706	489	184	284	219	16	-41	-41	-18	-69	-188	-114	44	-13	-193	-363	-515	-678	-718	-718	-885	-624	44	114	-156	-86	-27	-158	-212	-223	-279	-298	-380	-454	-319	-209	-265	-326	-368	-424	-477	-438	-286	-205	-249	-282	-314	-359
11:50:47.6130	599616051446827320	-324	-326	-412	-449	-419	-405	-431	-412	-356	-373	-412	-415	-538	-923	-1359	-1702	-1550	-613	-16	-305	-505	-214	123	46	-258	-391	-524	-697	-704	-692	-713	-631	-666	-846	-774	-589	-589	-669	-725	-783	-734	-422	-233	-284	-90	111	-18	-62	48	-9	-146	-291	-291	-97	-263	-839	-799	-23	90	-282	-160	-135	-394	-265	-93	-417	-685	-636	-666	-739	-657	-603	-648
11:50:48.1530	599616052011552738	-664	-641	-657	-676	-648	-613	-601	-603	-561	-419	-550	-1060	-997	-181	191	-30	-109	-137	-391	-477	-160	-48	-289	-242	-60	-128	-221	-296	-368	-251	-128	-235	-412	-505	-484	-431	-424	-377	-375	-648	-1056	-1182	-939	-503	-48	109	-41	-121	-74	-97	-177	-212	-219	-254	-298	-331	-349	-324	-272	-256	-291	-396	-477	-368	-310	-426	-426	-422	-561	-538	-349	-282	-312
11:50:48.7230	599616052576273069	-254	-132	-69	-60	-79	-90	-93	-146	-258	-370	-389	-312	-282	-326	-349	-305	-230	-207	-237	-265	-272	-254	-235	-233	-247	-254	-228	-233	-268	-244	-202	-223	-251	-244	-275	-305	-340	-442	-396	-221	-191	-219	-167	-144	-160	-144	-149	-205	-240	-240	-244	-244	-235	-258	-270	-216	-149	-170	-251	-258	-191	-177	-209	-188	-193	-410	-839	-1149	-974	-401	55	53	-144
11:50:49.2630	599616053141023918	-165	-107	-144	-202	-221	-284	-347	-291	-237	-317	-394	-373	-354	-370	-363	-363	-422	-477	-517	-673	-1098	-1606	-2310	-2681	-1023	965	617	-326	-221	146	377	477	382	261	240	212	111	20	-9	-23	-76	-114	-111	-125	-149	-151	-135	-123	-137	-149	-151	-163	-191	-202	-200	-233	-268	-282	-298	-342	-550	-741	-538	-319	-401	-438	-375	-361	-272	-223	-347	-403	-510
11:50:49.8330	599616053705744249	-1305	-2413	-1478	757	629	-394	-46	62	-338	-268	-191	-422	-498	-851	-1946	-2800	-1674	638	1000	86	-48	-440	-1049	-823	-352	4	317	200	-74	-65	-16	-60	-55	-81	-165	-221	-277	-342	-363	-352	-377	-410	-391	-391	-456	-531	-1154	-2438	-2725	-1632	-296	508	184	-242	-30	23	-95	-44	-18	-95	-144	-170	-233	-305	-286	-261	-331	-368	-347	-340	-333	-331	-349
11:50:50.3730	599616054270495098	-368	-368	-354	-366	-403	-389	-352	-396	-405	-338	-412	-524	-885	-2322	-3655	-3170	-2280	-2273	-2214	-1816	-1627	-1627	-1587	-1503	-1366	-1221	-1231	-1296	-1245	-1158	-1123	-1065	-953	-934	-1007	-983	-867	-830	-848	-844	-858	-853	-699	-470	-424	-501	-512	-529	-622	-725	-727	-634	-557	-482	-431	-515	-778	-1212	-1559	-1457	-937	-389	-256	-480	-580	-501	-468	-454	-424	-470	-529	-524	-540
11:50:50.9730	599616054835215429	-582	-573	-566	-648	-718	-683	-648	-685	-729	-725	-690	-680	-701	-692	-650	-641	-657	-615	-571	-568	-529	-498	-531	-543	-508	-496	-517	-522	-501	-491	-545	-594	-547	-489	-505	-522	-517	-508	-484	-568	-680	-582	-487	-536	-543	-543	-582	-557	-568	-629	-515	-394	-435	-368	-212	-226	-312	-375	-424	-326	-209	-230	-221	-128	-67	-380	-920	-505	596	734	207	307	648
11:50:51.5430	599616055399935760	412	139	230	212	18	-97	-90	-4	6	-104	-158	-158	-235	-282	-209	-198	-275	-293	-242	-212	-293	-291	-170	-158	-123	-209	-734	-1252	-1321	-820	62	342	-86	-214	-76	-132	-135	-97	-417	-892	-809	-293	-226	-529	-571	-477	-491	-494	-517	-662	-790	-610	-223	-16	-69	-205	-212	-146	-172	-216	-207	-193	-184	-151	-121	-223	-473	-659	-718	-496	-62	-41	-177
11:50:52.1130	599616055964671348	-18	2	-97	-13	51	-27	-81	-97	-132	-419	-1482	-2406	-1900	-1177	-652	484	473	-1298	-2270	-2238	-2471	-2291	-1671	-1200	-1149	-1634	-1702	-1298	-1282	-1349	-1205	-1193	-1249	-1151	-1060	-1065	-1046	-839	46	1403	1893	1387	1030	790	-536	-2098	-899	1522	1126	30	697	885	279	293	389	149	130	226	55	-53	137	247	151	116	198	128	-333	-797	-820	-559	-104	293	160
11:50:52.6830	599616056529406940	-202	-333	-384	-293	-88	-142	-298	-293	-254	-282	-289	-221	-104	-81	-440	-769	-512	-67	130	30	-149	-172	-422	-990	-711	200	-9	-1123	-1263	-34	463	-440	-505	433	345	-342	-382	-345	-552	-613	-587	-629	-634	-585	-512	-424	-373	-368	-375	-354	-275	-195	-177	-111	39	156	207	167	76	69	76	6	-76	-331	-487	-9	324	32	-39	90	-4	-65	-27
11:50:53.2230	599616057094127271	-111	-223	-195	-137	-163	-181	-153	-200	-333	-452	-424	-179	-4	-86	-160	-111	-116	-170	-163	-132	-130	-132	-142	-167	-172	-149	-156	-174	-149	-132	-179	-193	-170	-195	-223	-202	-160	-296	-743	-1186	-1198	-764	-170	118	-55	-198	-95	-83	-193	-214	-193	-219	-233	-209	-209	-254	-300	-296	-270	-284	-347	-431	-435	-326	-303	-349	-277	-307	-503	-552	-452	-352	-228
11:50:53.7630	599616057658847602	39	235	107	-69	-128	-137	-100	-153	-291	-293	-237	-263	-268	-284	-380	-387	-326	-319	-331	-338	-354	-377	-382	-335	-268	-268	-312	-333	-340	-303	-279	-370	-419	-363	-335	-338	-328	-335	-363	-384	-389	-398	-398	-375	-377	-387	-352	-312	-303	-307	-331	-387	-429	-412	-389	-389	-368	-354	-373	-366	-326	-324	-373	-394	-396	-459	-482	-389	-368	-454	-449	-398	-454
11:50:54.3630	599616058223567933	-519	-538	-545	-512	-477	-419	-307	-310	-405	-380	-440	-865	-1340	-1396	-993	-429	-128	-228	-449	-706	-1478	-2718	-3154	-2515	-2065	-2019	-1788	-1517	-1312	-1014	-755	-419	359	1095	1056	641	501	503	459	389	300	235	179	-237	-1028	-1137	-515	-265	-296	-123	-62	-244	-352	-370	-433	-380	-240	-184	-135	-23	46	25	-13	-48	-97	-128	-146	-177	-188	-181	-214	-223	-156
11:50:54.9330	599616058788318782	-128	-184	-207	-193	-233	-275	-251	-263	-361	-405	-345	-340	-389	-382	-359	-368	-361	-340	-345	-349	-359	-356	-345	-398	-466	-449	-426	-449	-468	-487	-533	-561	-599	-676	-685	-655	-706	-743	-720	-750	-806	-750	-645	-645	-711	-683	-641	-694	-664	-547	-543	-580	-561	-526	-540	-774	-1233	-1552	-1466	-1016	-419	-179	-442	-655	-610	-636	-876	-979	-720	-431	-335	-410	-701
11:50:55.5170	599616059353054371	-1035	-1102	-1007	-1063	-1128	-986	-932	-1016	-1021	-1037	-1067	-988	-958	-1049	-1025	-904	-867	-797	-606	-463	-477	-512	-429	-207	-88	-174	-118	-100	-652	-1154	-662	6	-118	-447	-480	-349	-188	-268	-454	-484	-438	-440	-564	-620	-538	-494	-496	-473	-408	-347	-221	-86	-172	-300	-277	-256	-263	-284	-419	-580	-592	-580	-617	-512	-380	-384	-356	-293	-326	-359	-333	-384	-487
11:50:56.0430	599616059917789962	-552	-578	-566	-519	-503	-540	-543	-501	-494	-543	-599	-594	-564	-575	-615	-631	-620	-634	-634	-599	-741	-1142	-1492	-1464	-976	-305	79	23	-186	-247	-205	-230	-298	-333	-349	-375	-410	-433	-422	-391	-363	-354	-368	-384	-366	-503	-1340	-1527	-174	-2	-923	-890	-1002	-1993	-1755	30	303	-519	-251	46	-272	-438	-361	-324	-363	-331	-310	-373	-375	-312	-321	-641	-1037
11:50:56.6130	599616060482510293	-986	-790	-795	-732	-638	-678	-722	-704	-573	-391	-391	-426	-254	-72	-37	-76	-125	-172	-228	-256	-254	-282	-328	-335	-303	-272	-289	-349	-394	-484	-564	-452	-342	-422	-459	-382	-368	-415	-435	-442	-503	-589	-666	-692	-578	-438	-340	-226	-228	-445	-568	-422	-209	-76	-249	-846	-1401	-1347	-797	-160	137	-18	-109	-27	-107	-170	-104	-130	-228	-265	-289	-298	-279
11:50:57.1530	599616061047230624	-284	-384	-545	-580	-552	-603	-587	-552	-557	-501	-498	-585	-557	-473	-405	-130	72	-86	-207	-156	-121	-130	-387	-955	-1219	-410	473	86	-373	-172	-174	-303	-235	-228	-268	-216	-200	-221	-202	-170	-144	-151	-179	-207	-235	-265	-307	-289	-216	-237	-291	-256	-244	-279	-303	-310	-272	-249	-261	-233	-186	-184	-214	-228	-258	-328	-340	-286	-258	-265	-286	-312	-394
11:50:57.7530	599616061611920437	-983	-2392	-3075	-1669	293	748	81	-30	205	23	-34	30	-331	-876	-1133	-953	-370	97	4	-249	-272	-263	-321	-289	-209	-193	-221	-277	-317	-284	-256	-268	-286	-356	-445	-412	-375	-454	-515	-522	-543	-540	-494	-442	-405	-396	-377	-326	-251	-207	-321	-389	-240	-216	-321	-321	-293	-333	-391	-398	-382	-368	-356	-368	-354	-326	-440	-629	-1161	-2203	-1762	51	352
11:50:58.3230	599616062176640768	-69	121	-20	-349	-359	-380	-445	-286	-261	-664	-837	-522	-356	-370	-370	-494	-533	-405	-389	-463	-505	-596	-624	-363	-79	-202	-408	-333	-277	-352	-356	-342	-375	-382	-391	-477	-496	-431	-480	-564	-615	-634	-510	-314	-256	-517	-932	-1205	-1142	-762	-671	-524	67	-615	-1820	-1349	-687	-233	783	622	-167	146	317	-76	-139	-256	-774	-876	-573	-955	-1699	-1970	-1991
11:50:58.8630	599616062741361099	-2079	-1942	-1214	-837	-1245	-837	-144	-1004	-1970	-1494	-804	-762	-862	-869	-876	-816	-704	-713	-783	-790	-806	-944	-1009	-746	-468	-326	-111	-156	-345	-356	-578	-347	449	177	-811	-885	-459	-526	-629	-408	-410	-557	-417	-484	-1004	-969	-575	-515	-235	-228	-755	-1196	-1408	-1161	-869	-694	-195	-2	-324	-491	-718	-1135	-1161	-888	-785	-846	-953	-734	-149	93	-23	-209	-363
11:50:59.4330	599616063306091600	-237	-293	-685	-783	-627	-781	-1312	-1667	-1193	-366	-214	-445	-578	-1025	-1690	-1743	-1268	-1172	-1349	-1254	-1133	-1151	-1114	-1049	-1058	-1067	-1046	-1049	-1074	-1081	-1074	-1072	-1095	-1119	-1109	-1091	-1079	-1037	-960	-878	-818	-767	-720	-685	-678	-685	-676	-673	-697	-704	-680	-673	-683	-690	-694	-692	-692	-697	-685	-697	-736	-729	-694	-718	-767	-753	-711	-706	-711	-687	-666	-671	-683
11:51:00.0040	599616063870832279	-666	-645	-648	-655	-648	-666	-725	-774	-748	-699	-699	-708	-680	-666	-678	-669	-650	-662	-687	-692	-678	-664	-648	-631	-615	-617	-645	-657	-641	-652	-613	-554	-790	-1352	-1776	-1601	-892	-247	-181	-449	-522	-456	-496	-533	-519	-536	-561	-564	-564	-578	-608	-606	-589	-620	-634	-643	-713	-760	-739	-727	-746	-748	-741	-739	-713	-636	-477	-310	-352	-498	-452	-368	-452
11:51:00.5430	599616064435552610	-503	-401	-303	-293	-291	-359	-529	-550	-449	-452	-403	-286	-338	-456	-482	-561	-706	-680	-573	-585	-589	-543	-557	-573	-501	-429	-463	-533	-494	-158	361	470	244	251	188	-146	-326	-403	-153	438	153	-876	-746	-11	-617	-1037	354	1389	501	-792	-1077	-545	-293	-277	349	648	-429	-1767	-1608	-820	-1093	-1370	-352	1268	1706	545	-233	-195	-648	-941	-389	-62	-263
11:51:01.1430	599616065000272941	100	706	573	391	540	505	186	-25	123	251	132	-361	-1121	-1844	-2226	-1748	-610	-167	-1275	-1781	-209	969	529	179	317	216	156	207	88	-258	-967	-1471	-1170	-680	-361	-242	-461	-596	-543	-764	-1133	-897	37	449	55	-58	-62	-170	65	216	60	-69	-104	-167	-296	-345	-216	-114	-328	-988	-1697	-1653	-1182	-1144	-1191	-1004	-916	-904	-827	-785	-790	-764	-727
11:51:01.7130	599616065564993272	-708	-708	-699	-669	-648	-659	-664	-664	-711	-736	-678	-648	-659	-615	-543	-594	-734	-720	-613	-293	11	118	678	981	732	897	962	601	230	-515	-1370	-923	-300	-1154	-1464	-732	-461	-237	-2	-62	-279	-720	-440	447	512	156	230	296	163	317	512	384	268	230	93	-11	-18	-116	-538	-939	-1042	-1681	-1991	-417	690	-67	-326	114	18	-79	79	23	-102
11:51:02.2530	599616066129713603	-74	-121	-228	-200	-370	-904	-1114	-958	-1433	-2170	-1930	-1429	-1249	-638	573	1335	816	237	342	139	-226	114	433	100	-212	-307	-289	-177	-172	-165	-160	-370	-666	-778	-899	-1347	-1571	-1175	-951	-853	-480	-512	-899	-1144	-1247	-1063	-790	-830	-939	-851	-750	-760	-776	-774	-795	-846	-820	-802	-883	-867	-853	-967	-1032	-953	-844	-844	-883	-830	-757	-862	-1028	-979	-806
11:51:02.8230	599616066694433934	-552	-389	-755	-1485	-1977	-1916	-1377	-694	-422	-645	-755	-634	-608	-624	-603	-620	-622	-594	-559	-545	-659	-769	-564	-205	-209	-501	-650	-645	-706	-855	-790	-687	-851	-764	-408	-300	-324	-340	-284	-34	9	-408	-799	-823	-769	-720	-314	67	-177	-559	-382	32	4	-417	-839	-1088	-1137	-932	-664	-669	-753	-687	-636	-645	-634	-622	-634	-648	-645	-622	-596	-596	-608
11:51:03.3930	599616067259123747	-601	-573	-566	-573	-566	-540	-540	-589	-564	-396	-202	-58	-104	-128	146	167	-58	20	65	-289	-449	-279	-470	-1016	-1319	-641	396	172	-447	-32	293	-135	-226	37	4	-69	37	0	-419	-913	-1172	-1009	-314	270	146	-326	-517	-704	-1224	-1186	-384	-48	-359	-440	-475	-687	-314	333	200	-214	-158	-235	-892	-1429	-1221	-734	-277	165	195	-102	-517	-582	-615
11:51:03.9330	599616067823844078	-1468	-1776	-1179	-1051	-736	538	1128	-32	-1475	-1674	-1028	-785	-806	-491	-193	191	622	284	13	494	449	16	32	55	-60	-58	-60	-121	-144	-116	-202	-729	-1464	-1648	-1331	-1119	-986	-858	-701	-137	366	-51	-526	-146	-335	-1384	-1569	-1144	-1151	-1074	-715	-692	-851	-704	-568	-643	-641	-596	-620	-538	-405	-366	-345	-373	-408	-347	-335	-396	-389	-382	-394	-331	-412
11:51:04.5330	599616068388533891	-858	-1370	-1508	-1191	-622	-237	-321	-501	-468	-429	-466	-477	-484	-422	-100	25	-568	-1051	-825	-631	-753	-757	-680	-715	-727	-671	-459	275	767	100	-347	-81	-380	-718	-837	-671	678	1359	505	240	519	321	144	205	177	104	81	44	-2	-20	-25	-51	-76	-76	-76	-90	-97	-109	-151	-205	-226	-237	-263	-254	-207	-191	-207	-214	-219	-209	-177	-186	-193
11:51:05.1030	599616068953254222	-151	-165	-237	-317	-883	-1883	-1918	-902	-270	-606	-1079	-988	-811	-207	494	-30	-533	-307	-690	-927	-9	412	-286	-566	-39	251	-116	-226	-53	-508	-734	-184	27	-237	-433	-778	-1324	-1550	-1144	-408	-9	-195	-410	-331	-284	-333	-300	-289	-347	-403	-324	-144	-186	-377	-405	-382	-452	-494	-484	-564	-622	-538	-559	-578	-447	-459	-447	-300	-403	-543	-734	-1363	-1657
11:51:05.6430	599616069517974553	-1291	-1098	-1037	-473	342	461	32	67	293	-55	-433	-286	-233	-375	-463	-699	-741	-459	-408	-881	-1352	-1247	-892	-790	-983	-930	-624	-601	-331	-16	-552	-965	-505	-235	-512	-778	-678	-265	-167	-331	-258	-188	-296	-363	-524	-885	-1086	-1102	-1032	-711	-258	-102	-249	-291	-207	-116	9	9	-135	-107	-44	-335	-580	-359	-221	-634	-1175	-1338	-1226	-913	-519	-475	-629
11:51:06.2130	599616070082664366	-580	-487	-634	-955	-1100	-1021	-1037	-1074	-962	-939	-993	-955	-918	-918	-881	-858	-871	-883	-899	-909	-892	-878	-858	-799	-774	-743	-461	-137	-181	-156	34	-121	-508	-846	-962	-764	-566	-384	4	74	-170	4	312	277	135	74	-16	-86	-34	4	-13	-55	-76	-62	-121	-191	-111	-116	-296	-284	-100	-76	-158	-209	-270	-307	-317	-300	-331	-373	-261	-179	-263
11:51:06.7530	599616070647359262	-328	-310	-352	-412	-349	-268	-293	-335	-300	-261	-293	-349	-368	-368	-377	-354	-324	-461	-920	-1429	-1387	-767	-139	39	-90	-235	-692	-846	-631	-1515	-2170	-1440	-1112	-1375	-1254	-1058	-1084	-1056	-983	-976	-965	-937	-711	-132	107	-366	-869	-874	-739	-1056	-1147	-524	-149	-340	-433	-338	-331	-354	-347	-366	-387	-391	-387	-349	-310	-345	-422	-447	-424	-422	-426	-415	-417
11:51:07.3230	599616071212074510	-433	-422	-401	-422	-477	-505	-480	-461	-484	-496	-475	-466	-452	-447	-482	-482	-449	-426	-403	-408	-431	-456	-484	-468	-447	-454	-440	-456	-498	-501	-505	-536	-545	-519	-482	-470	-575	-762	-797	-699	-669	-657	-578	-522	-669	-1105	-1604	-1683	-1002	90	475	-20	-226	20	-16	-205	-219	-221	-286	-461	-853	-1065	-853	-715	-776	-741	-685	-713	-729	-732	-774	-797	-771
11:51:07.9530	599616071776794841	-760	-767	-725	-655	-641	-662	-566	-403	-410	-512	-461	-384	-422	-468	-496	-526	-526	-501	-484	-480	-484	-515	-550	-510	-431	-449	-496	-487	-480	-473	-438	-387	-300	-263	-307	-310	-293	-317	-317	-324	-408	-491	-468	-417	-422	-391	-314	-347	-470	-491	-384	-307	-328	-342	-321	-352	-426	-405	-324	-373	-445	-408	-384	-398	-384	-370	-396	-429	-449	-463	-426	-391	-540
11:51:08.4930	599616072341484654	-930	-1424	-1636	-1170	-326	51	-228	-463	-373	-431	-573	-517	-501	-552	-587	-615	-582	-582	-613	-594	-594	-617	-589	-568	-594	-615	-650	-659	-606	-620	-676	-666	-613	-526	-431	-363	-326	-342	-384	-396	-373	-335	-340	-373	-373	-347	-284	-256	-363	-447	-368	-272	-321	-377	-324	-352	-477	-489	-459	-461	-410	-338	-352	-391	-363	-363	-405	-373	-300	-300	-377	-429	-424
11:51:09.0340	599616072906174467	-449	-438	-361	-363	-396	-375	-377	-401	-389	-398	-475	-505	-449	-442	-491	-526	-564	-606	-615	-557	-496	-477	-419	-305	-289	-396	-475	-422	-382	-671	-1261	-1608	-1233	-442	53	-30	-312	-368	-333	-431	-491	-419	-422	-470	-484	-519	-522	-494	-510	-545	-545	-540	-566	-592	-601	-624	-657	-659	-641	-638	-650	-631	-578	-552	-531	-454	-389	-382	-377	-359	-345	-354	-373
11:51:09.6030	599616073470864280	-387	-384	-384	-396	-398	-398	-449	-522	-515	-454	-449	-468	-440	-422	-445	-452	-417	-356	-333	-373	-415	-510	-620	-561	-370	-261	-321	-398	-352	-296	-354	-382	-328	-338	-382	-380	-373	-382	-382	-382	-387	-401	-426	-429	-405	-380	-359	-352	-349	-361	-408	-431	-375	-321	-445	-764	-1158	-1370	-1023	-261	179	-13	-314	-333	-291	-333	-454	-524	-396	-268	-312	-352	-349
11:51:10.1470	599616074035554093	-417	-419	-361	-522	-685	-571	-396	-303	-317	-419	-557	-596	-466	-333	-209	60	417	699	832	608	151	268	795	666	207	268	489	328	209	359	321	167	179	219	135	46	58	69	37	27	32	-13	-62	-60	-48	-27	11	0	-53	-58	-62	-97	-93	-102	-153	-163	-153	-184	-207	-191	-167	-151	-158	-181	-193	-212	-240	-254	-247	-184	-102	-135	-261
11:51:10.7130	599616074600243902	-375	-415	-326	-279	-408	-452	-335	-293	-293	-277	-512	-1028	-1410	-1317	-732	-46	100	-193	-268	-170	-219	-258	-223	-265	-317	-272	-193	-149	-167	-237	-277	-289	-338	-403	-415	-417	-484	-552	-564	-601	-638	-594	-424	-275	-328	-384	-373	-394	-324	-240	-244	-256	-244	-242	-272	-256	-205	-223	-256	-279	-333	-398	-606	-1287	-1900	-1594	-1147	-1205	-1158	-958	-953	-965	-855
11:51:11.3130	599616075164964237	-802	-811	-778	-741	-764	-809	-795	-746	-783	-778	-645	-603	-657	-641	-608	-608	-603	-582	-405	-125	-118	-228	-195	-237	-319	-48	531	687	310	158	207	30	-102	-109	-160	-121	-74	-137	-184	-184	-174	-67	44	-139	-657	-1172	-1224	-713	-93	118	-55	-195	-172	-205	-310	-387	-424	-440	-466	-608	-1284	-2044	-1520	88	944	454	4	-319	-624	-676	-1664	-2315	-1419
11:51:11.8830	599616075729654050	-995	-1261	-848	764	2499	2340	1235	1046	1149	739	310	536	1084	1163	902	823	771	643	585	496	410	445	435	338	179	-163	-347	6	265	13	-160	-100	-167	-156	32	30	-62	11	128	209	333	452	473	489	540	498	461	487	440	317	151	41	163	249	233	366	363	146	46	58	48	20	-27	-88	-128	-230	-1151	-1736	-195	694	-165	-237	13
11:51:12.4230	599616076294343863	-435	-837	-1375	-1606	-310	403	-974	-1599	-589	-102	-403	-382	-11	79	-123	-195	-160	-282	-529	-736	-1342	-2828	-3497	-2448	-1902	-2186	-1986	-1711	-1314	286	1639	995	289	473	314	-146	-496	-617	-335	186	403	179	41	146	268	296	212	121	46	-109	-265	-312	-361	-417	-366	-293	-300	-347	-396	-435	-410	-263	-137	-216	-398	-424	-335	-298	-307	-321	-498	-512	-9
11:51:12.9930	599616076859033676	128	-214	-242	-163	-244	-230	-165	-307	-496	-405	-221	-261	-359	-321	-314	-482	-671	-580	-342	-317	-307	-247	-410	-559	-370	-254	-412	-382	-247	-345	-470	-442	-363	-324	-268	-333	-743	-1312	-1585	-1294	-601	-121	-230	-470	-415	-349	-408	-391	-384	-498	-554	-491	-461	-505	-554	-545	-470	-424	-482	-533	-578	-734	-743	-655	-997	-1433	-1294	-953	-885	-825	-713	-776	-976
11:51:13.5330	599616077423728572	-1191	-1261	-1163	-1228	-1431	-1361	-1212	-1324	-1391	-1221	-1091	-1098	-1070	-981	-930	-927	-918	-913	-920	-911	-883	-841	-799	-790	-795	-774	-734	-725	-753	-736	-701	-718	-722	-678	-671	-711	-701	-662	-659	-671	-676	-685	-683	-666	-650	-638	-641	-643	-624	-613	-627	-620	-601	-615	-622	-608	-587	-580	-601	-631	-678	-727	-718	-666	-657	-662	-650	-666	-669	-582	-517	-706	-1198
11:51:14.1030	599616077988413298	-1676	-1671	-1056	-298	-102	-433	-552	-431	-536	-692	-613	-524	-403	263	1333	1895	1611	1084	920	925	762	617	550	410	305	291	223	158	160	137	93	95	121	139	125	39	-60	104	480	494	188	-37	-104	121	356	251	172	223	158	72	81	55	-16	9	86	32	-114	-156	-107	-193	-342	-387	-449	-445	-293	-195	-172	-137	-233	-431	-312	-144	-855
11:51:14.7040	599616078553133633	-2347	-3010	-2266	-1573	-1440	-1179	-1170	-1636	-1573	-1191	-1207	-1130	-543	121	403	531	491	319	422	431	179	13	-135	-165	-67	-149	-242	-209	-247	-314	-300	-289	-333	-310	-139	32	-6	-228	-543	-972	-1119	-617	-9	88	-88	-128	-60	-102	-207	-198	-188	-389	-662	-1121	-2075	-2350	-1109	-818	-2075	-2054	-1207	-820	-263	-561	-1760	-1834	-1088	-941	-1170	-1217	-1025	-953	-986
11:51:15.2730	599616079117823446	-858	-774	-790	-629	-424	-477	-580	-610	-722	-713	-557	-652	-734	-615	-862	-1046	-795	-764	-734	53	848	608	74	-6	41	-37	-212	-370	-438	-408	-422	-582	-659	-568	-524	-573	-638	-690	-680	-624	-685	-1081	-1342	-827	-419	-732	-811	-561	-582	-643	-582	-599	-645	-652	-645	-643	-697	-750	-692	-643	-685	-783	-953	-1037	-948	-858	-811	-746	-701	-690	-662	-657	-666
11:51:15.8140	599616079682513259	-608	-557	-734	-1177	-1559	-1531	-1000	-326	-149	-491	-757	-764	-722	-713	-692	-662	-676	-713	-739	-734	-704	-694	-708	-699	-687	-713	-741	-739	-739	-767	-790	-790	-774	-757	-739	-701	-687	-676	-596	-505	-468	-454	-447	-466	-501	-512	-508	-498	-501	-531	-554	-533	-519	-533	-515	-442	-394	-377	-335	-342	-417	-463	-456	-396	-345	-375	-389	-352	-361	-387	-391	-410	-438
11:51:16.3830	599616080247213242	-461	-475	-559	-734	-620	-307	-377	-596	-557	-482	-505	-496	-466	-477	-480	-466	-463	-435	-405	-403	-319	-270	-405	-429	-305	-263	-258	-303	-279	-331	-559	-373	37	-86	-643	-1291	-1820	-1711	-874	-132	-2	-319	-708	-711	-517	-545	-601	-545	-533	-559	-547	-529	-522	-324	303	788	545	207	233	272	200	97	-146	-580	-895	-902	-487	289	603	223	-11	116	125
11:51:16.9240	599616080811923403	44	74	86	69	74	23	-60	-102	-121	-172	-298	-445	-398	-95	137	76	9	76	67	-39	-354	-1135	-1597	-899	-184	-39	328	363	-216	-375	-46	-193	-753	-401	291	188	305	585	163	-405	-300	95	104	219	342	76	88	349	221	-83	-97	13	6	16	18	-86	-214	-296	-326	-172	74	97	-172	-1217	-2466	-2205	-1254	-995	-825	-370	387	1007	871
11:51:17.5240	599616081376613216	538	442	328	167	34	-44	-81	-228	-403	-401	-328	-319	-333	-380	-426	-433	-519	-669	-774	-720	-396	-174	-223	-130	30	11	-13	-18	-135	-317	-645	-1198	-1879	-2138	-1671	-1321	-1368	-1266	-1086	-1051	-1032	-927	-825	-811	-811	-741	-701	-748	-762	-699	-659	-680	-683	-636	-601	-608	-624	-636	-645	-617	-547	-419	153	825	601	338	359	-792	-1764	-1030	-554	-839	-293
11:51:18.0930	599616081941303029	699	207	-1303	-1333	-356	-202	-599	-869	-305	860	953	-11	-883	-1217	-946	-664	-783	-1105	-1499	-1739	-1482	-769	-23	750	1340	1002	494	704	725	345	216	-13	-617	-746	-303	-289	-452	-251	-247	-447	-433	-377	-433	-543	-571	-622	-771	-906	-1405	-1685	-685	263	-324	-1028	-678	83	498	-118	-1116	-1268	-972	-855	-473	-53	-356	-659	-540	-620	-795	-620	-398	-613	-860
11:51:18.6640	599616082506033532	-818	-778	-750	-678	-701	-795	-823	-795	-788	-792	-813	-788	-676	-370	55	-200	-892	-823	-463	-435	-422	-536	-538	-368	-531	-725	-622	-373	-352	-501	-487	-617	-704	-473	-449	-659	-671	-582	-606	-608	-505	-510	-865	-1438	-1781	-1447	-641	-200	-377	-599	-568	-547	-613	-622	-585	-585	-615	-624	-599	-587	-615	-645	-664	-701	-734	-718	-708	-734	-767	-781	-753	-732	-734
11:51:19.2030	599616083070713173	-687	-606	-477	-307	-265	-333	-310	-282	-312	-307	-338	-435	-459	-422	-452	-447	-356	-382	-496	-550	-557	-491	-445	-524	-561	-519	-519	-526	-505	-501	-498	-480	-468	-475	-482	-459	-431	-447	-463	-438	-412	-422	-442	-447	-445	-442	-431	-412	-424	-456	-475	-475	-459	-382	-254	-272	-394	-403	-417	-512	-554	-477	-417	-610	-1025	-1396	-1417	-823	-81	195	249	219	-146
11:51:19.7740	599616083635402986	-648	-718	-491	-494	-571	-505	-491	-582	-501	-193	-319	-715	-445	-88	-405	-785	-762	-629	-678	-778	-673	-415	-289	-235	-179	-356	-195	338	97	-438	-431	-487	-631	-564	-484	-454	-429	-419	-424	-426	-415	-410	-435	-449	-424	-396	-403	-445	-473	-447	-422	-410	-319	-212	-256	-384	-463	-484	-466	-431	-405	-398	-394	-377	-366	-377	-394	-382	-366	-368	-366	-352	-359
11:51:20.3430	599616084200092799	-384	-412	-410	-377	-361	-368	-359	-361	-424	-466	-422	-359	-235	-249	-762	-1394	-1634	-1401	-519	405	282	-247	-172	-32	-95	265	631	272	146	449	151	-261	-153	-95	-235	-249	-226	-261	-282	-314	-403	-338	-90	-74	-265	-270	-209	-254	-205	-76	-46	-67	-46	-37	-74	-107	-102	-102	-128	-160	-174	-170	-198	-230	-235	-263	-293	-277	-256	-254	-242	-226	-219
11:51:20.8840	599616084764782612	-188	-137	-111	-107	-146	-254	-333	-293	-277	-366	-382	-331	-398	-582	-725	-676	-575	-608	-564	-417	-480	-613	-594	-645	-762	-725	-643	-690	-774	-767	-741	-788	-809	-741	-690	-690	-673	-634	-603	-615	-652	-594	-484	-657	-1172	-1613	-1592	-1051	-324	-41	-286	-445	-361	-347	-403	-419	-429	-438	-442	-475	-494	-461	-440	-470	-498	-501	-508	-531	-545	-557	-580	-596	-587
11:51:21.4840	599616085329472425	-573	-564	-550	-512	-454	-438	-456	-396	-319	-326	-368	-375	-314	-277	-331	-382	-384	-384	-389	-380	-373	-389	-391	-389	-433	-480	-449	-412	-419	-426	-410	-387	-382	-401	-401	-380	-398	-435	-433	-433	-463	-517	-540	-477	-401	-384	-331	-153	-167	-540	-781	-673	-585	-606	-559	-501	-505	-510	-484	-470	-475	-473	-466	-470	-475	-463	-452	-456	-466	-468	-442	-419	-410
11:51:22.0240	599616085894162238	-398	-394	-417	-431	-424	-394	-387	-610	-1098	-1510	-1492	-899	-149	11	-317	-433	-354	-405	-463	-426	-426	-456	-456	-438	-424	-438	-468	-470	-468	-494	-522	-531	-552	-580	-592	-589	-603	-638	-631	-578	-538	-503	-429	-356	-331	-319	-296	-279	-284	-310	-335	-333	-324	-338	-352	-363	-375	-363	-354	-377	-384	-384	-391	-375	-361	-377	-373	-354	-347	-321	-335	-426	-445
11:51:22.5940	599616086458852051	-401	-410	-419	-403	-398	-389	-398	-473	-550	-545	-501	-484	-475	-456	-456	-461	-440	-419	-426	-447	-447	-431	-424	-424	-422	-422	-445	-475	-477	-461	-475	-501	-487	-456	-456	-452	-424	-417	-433	-424	-408	-412	-422	-394	-342	-461	-902	-1391	-1487	-1028	-317	30	-165	-389	-375	-347	-387	-401	-408	-438	-466	-482	-494	-477	-470	-491	-512	-519	-531	-557	-571	-568	-585
11:51:23.1930	599616087023541864	-650	-692	-655	-617	-610	-575	-519	-501	-503	-449	-368	-352	-370	-349	-321	-331	-345	-352	-382	-410	-403	-387	-382	-380	-389	-403	-405	-398	-396	-389	-394	-401	-389	-370	-373	-382	-382	-370	-368	-375	-363	-349	-352	-296	-261	-368	-424	-363	-366	-403	-410	-403	-384	-326	-212	-139	-186	-240	-300	-373	-293	-200	-261	-277	-247	-352	-435	-356	-370	-489	-477	-459	-545
11:51:23.7040	599616087588206242	-533	-454	-438	-422	-405	-422	-396	-277	-198	-277	-384	-594	-1161	-1594	-1233	-396	114	11	-235	-212	-160	-228	-258	-284	-356	-366	-366	-370	-303	-317	-417	-454	-445	-433	-435	-477	-505	-498	-503	-531	-554	-547	-522	-512	-482	-398	-347	-335	-300	-256	-244	-270	-298	-305	-303	-310	-314	-319	-373	-419	-377	-312	-312	-345	-356	-394	-456	-410	-293	-277	-317	-321	-340
11:51:24.2740	599616088152890972	-389	-389	-349	-331	-335	-384	-447	-442	-410	-424	-452	-426	-405	-424	-417	-391	-401	-412	-391	-370	-377	-391	-391	-377	-375	-380	-366	-352	-361	-370	-354	-345	-382	-391	-370	-410	-452	-426	-403	-415	-435	-426	-352	-314	-363	-384	-366	-345	-293	-361	-790	-1375	-1580	-1193	-459	65	-13	-270	-240	-188	-275	-298	-289	-347	-380	-359	-373	-405	-415	-429	-449	-468	-475
11:51:24.8740	599616088717580785	-480	-491	-519	-547	-554	-582	-650	-659	-594	-557	-524	-445	-368	-331	-307	-286	-270	-270	-279	-277	-277	-305	-340	-340	-324	-335	-349	-352	-373	-398	-396	-387	-398	-405	-391	-380	-384	-391	-398	-408	-389	-375	-412	-470	-468	-431	-442	-442	-412	-459	-517	-477	-435	-466	-505	-498	-473	-435	-408	-419	-431	-438	-470	-477	-454	-466	-459	-412	-440	-501	-477	-452	-461
11:51:25.4140	599616089282270598	-442	-408	-394	-415	-445	-452	-440	-419	-389	-375	-415	-494	-540	-524	-526	-559	-508	-408	-531	-976	-1447	-1548	-1093	-338	60	-151	-396	-328	-265	-338	-380	-382	-401	-429	-463	-484	-468	-475	-517	-524	-508	-529	-561	-578	-620	-671	-671	-636	-620	-603	-566	-510	-449	-403	-333	-261	-251	-221	-163	-188	-53	125	-37	-100	-44	-167	-130	-114	-188	-6	53	-216	-508
11:51:25.9830	599616089846960411	-699	-748	-652	-505	-349	-319	-305	-244	-491	-778	-678	-324	-93	-221	-380	-403	-354	-256	-503	-853	-715	-596	-802	-806	-645	-655	-706	-676	-631	-603	-596	-585	-454	-242	-275	-545	-671	-594	-552	-566	-496	-401	-447	-554	-543	-503	-517	-496	-459	-473	-417	-328	-384	-473	-461	-401	-403	-671	-1158	-1410	-1142	-519	46	207	116	60	-132	-296	-111	-16	-247	-503	-578
11:51:26.5540	599616090411629876	-575	-536	-410	-359	-361	-340	-447	-554	-652	-860	-755	-512	-713	-890	-676	-480	-445	-456	-517	-524	-454	-391	-314	-307	-387	-366	-305	-340	-356	-338	-431	-603	-627	-522	-503	-540	-522	-489	-482	-487	-475	-459	-466	-473	-452	-433	-435	-442	-438	-424	-422	-435	-447	-449	-473	-491	-477	-482	-512	-510	-484	-477	-480	-470	-454	-449	-466	-463	-438	-431	-442	-440	-429
11:51:27.0940	599616090976309519	-429	-429	-417	-401	-408	-429	-435	-438	-477	-531	-524	-522	-559	-531	-461	-452	-482	-491	-461	-426	-377	-356	-589	-1128	-1559	-1436	-774	-83	44	-242	-321	-216	-256	-319	-296	-312	-361	-354	-342	-363	-389	-398	-403	-417	-435	-445	-454	-484	-529	-550	-545	-552	-547	-442	-289	-235	-235	-177	-128	-128	-109	-60	-62	-116	-167	-186	-186	-186	-188	-212	-249	-277	-284
11:51:27.6640	599616091540999332	-282	-286	-300	-335	-396	-461	-512	-512	-466	-459	-473	-442	-410	-408	-405	-394	-405	-438	-447	-431	-435	-447	-454	-456	-454	-449	-440	-429	-440	-449	-424	-403	-412	-419	-415	-405	-403	-405	-410	-429	-435	-419	-401	-396	-412	-433	-435	-417	-408	-410	-403	-401	-431	-419	-340	-321	-366	-398	-389	-321	-442	-995	-1562	-1543	-941	-216	44	-198	-354	-298	-359	-449	-412
11:51:28.2630	599616092105684058	-377	-401	-419	-426	-424	-435	-501	-557	-526	-512	-547	-550	-533	-554	-589	-601	-589	-582	-575	-547	-505	-475	-426	-349	-293	-277	-272	-268	-265	-282	-310	-293	-235	-228	-282	-314	-321	-333	-335	-333	-335	-347	-352	-338	-340	-361	-359	-338	-340	-356	-361	-363	-361	-356	-359	-377	-424	-454	-452	-449	-454	-473	-515	-526	-501	-487	-470	-449	-459	-470	-452	-438	-445
11:51:28.8040	599616092670348440	-438	-422	-429	-433	-419	-401	-403	-422	-435	-438	-473	-538	-536	-475	-468	-470	-403	-352	-391	-452	-477	-466	-396	-382	-634	-1126	-1496	-1345	-650	16	65	-240	-319	-240	-275	-326	-305	-307	-354	-368	-361	-375	-387	-394	-415	-435	-452	-463	-473	-503	-550	-578	-601	-648	-673	-643	-599	-561	-503	-419	-352	-333	-342	-307	-256	-268	-291	-284	-296	-324	-326	-338	-370
11:51:29.3740	599616093235038253	-398	-394	-352	-347	-394	-403	-387	-445	-526	-505	-466	-498	-512	-477	-463	-468	-452	-431	-438	-468	-477	-452	-438	-440	-440	-452	-466	-484	-496	-482	-475	-498	-501	-480	-477	-482	-473	-463	-473	-482	-482	-473	-477	-494	-484	-454	-475	-510	-487	-466	-487	-482	-435	-377	-380	-617	-1095	-1473	-1387	-764	-69	65	-230	-356	-279	-275	-321	-340	-352	-363	-370	-356	-340
11:51:29.9140	599616093799707718	-361	-394	-415	-422	-438	-473	-498	-526	-603	-669	-643	-615	-636	-624	-564	-512	-466	-398	-335	-303	-275	-247	-233	-244	-272	-277	-275	-293	-296	-289	-303	-319	-331	-349	-366	-370	-370	-377	-408	-447	-429	-394	-417	-445	-419	-389	-391	-403	-401	-389	-377	-382	-380	-368	-377	-396	-384	-359	-359	-377	-375	-359	-366	-401	-419	-433	-475	-484	-442	-426	-445	-454	-461
11:51:30.4840	599616094364387361	-473	-468	-449	-433	-452	-512	-524	-459	-431	-452	-445	-426	-403	-335	-370	-736	-1317	-1608	-1259	-482	62	-18	-284	-277	-242	-328	-333	-298	-338	-387	-415	-452	-459	-435	-429	-442	-466	-473	-463	-468	-498	-531	-536	-522	-526	-529	-489	-459	-435	-375	-300	-258	-237	-221	-209	-209	-233	-247	-249	-275	-282	-258	-261	-282	-286	-286	-298	-303	-298	-296	-310	-324	-314
11:51:31.0540	599616094929077174	-291	-291	-303	-300	-307	-347	-408	-422	-394	-396	-412	-391	-361	-361	-375	-391	-401	-394	-380	-366	-356	-366	-391	-422	-438	-417	-396	-391	-408	-431	-429	-419	-440	-466	-463	-433	-417	-424	-417	-394	-394	-398	-377	-363	-375	-389	-384	-335	-356	-676	-1212	-1536	-1301	-571	55	39	-256	-258	-174	-240	-284	-263	-277	-342	-422	-435	-398	-398	-422	-424	-429	-449	-466
11:51:31.6540	599616095493736469	-473	-480	-510	-547	-554	-531	-538	-571	-540	-468	-433	-380	-289	-247	-265	-300	-331	-331	-314	-314	-312	-319	-333	-326	-307	-347	-417	-405	-366	-375	-387	-363	-354	-373	-377	-356	-347	-368	-382	-373	-359	-356	-354	-342	-340	-368	-391	-373	-317	-254	-251	-293	-300	-293	-300	-305	-324	-349	-361	-396	-422	-373	-291	-279	-335	-352	-340	-370	-417	-459	-473	-456	-468
11:51:32.1940	599616096058426282	-480	-440	-410	-412	-380	-340	-338	-377	-435	-429	-408	-456	-477	-380	-389	-778	-1312	-1529	-1203	-475	23	-137	-405	-293	-163	-235	-291	-296	-340	-370	-361	-373	-387	-387	-398	-415	-412	-429	-473	-494	-489	-508	-545	-554	-550	-550	-536	-501	-447	-398	-359	-303	-247	-235	-237	-219	-223	-251	-258	-268	-303	-331	-340	-326	-312	-324	-335	-328	-338	-366	-368	-359	-396
11:51:32.7940	599616096623085577	-445	-429	-389	-389	-396	-384	-377	-435	-557	-578	-461	-412	-461	-456	-422	-429	-438	-415	-431	-477	-466	-426	-422	-429	-426	-422	-415	-417	-419	-412	-426	-459	-468	-470	-480	-475	-473	-491	-540	-573	-538	-498	-498	-456	-389	-396	-447	-461	-454	-442	-408	-342	-375	-727	-1247	-1485	-1182	-461	100	25	-277	-314	-265	-333	-429	-461	-463	-452	-417	-412	-452	-466	-456
11:51:33.3040	599616097187775390	-477	-501	-503	-510	-529	-545	-517	-491	-526	-557	-550	-545	-580	-594	-496	-384	-347	-317	-272	-256	-261	-258	-251	-258	-284	-298	-289	-286	-298	-303	-300	-307	-314	-307	-296	-305	-324	-321	-305	-310	-345	-384	-401	-384	-370	-359	-377	-419	-382	-300	-303	-340	-328	-312	-321	-335	-361	-394	-389	-387	-410	-429	-449	-433	-417	-466	-487	-456	-529	-610	-531	-470	-552
11:51:33.8740	599616097752434685	-592	-540	-501	-449	-461	-610	-669	-559	-498	-501	-470	-433	-442	-475	-470	-431	-387	-352	-477	-890	-1398	-1576	-1119	-312	102	30	32	107	-2	-100	-100	-151	-247	-282	-272	-284	-307	-319	-384	-510	-475	-310	-328	-431	-435	-438	-459	-466	-487	-496	-442	-375	-338	-289	-226	-188	-177	-156	-153	-198	-230	-209	-191	-228	-277	-275	-261	-270	-277	-268	-265	-284	-298
11:51:34.4740	599616098317124498	-305	-391	-543	-592	-522	-505	-557	-496	-291	-198	-286	-314	-263	-286	-340	-366	-391	-391	-370	-359	-356	-373	-412	-438	-433	-424	-419	-410	-408	-412	-405	-387	-370	-342	-312	-317	-328	-331	-354	-368	-349	-347	-391	-410	-380	-377	-384	-370	-370	-370	-331	-298	-324	-354	-368	-366	-293	-342	-718	-1226	-1489	-1203	-463	46	-83	-354	-321	-263	-333	-375	-373	-370	-326
11:51:35.0440	599616098881783793	-233	-256	-435	-505	-424	-410	-475	-526	-538	-531	-587	-666	-666	-650	-678	-666	-582	-438	-282	-223	-279	-284	-170	-118	-177	-188	-170	-193	-205	-172	-153	-156	-167	-258	-356	-340	-298	-312	-338	-335	-326	-326	-331	-326	-333	-370	-359	-282	-244	-263	-277	-284	-331	-354	-303	-268	-319	-380	-380	-356	-396	-445	-373	-305	-403	-501	-470	-438	-475	-449	-382	-452	-498
11:51:35.5840	599616099446463432	-394	-368	-438	-442	-417	-387	-326	-293	-331	-354	-338	-417	-501	-459	-449	-470	-377	-275	-319	-368	-342	-384	-419	-291	-200	-298	-335	-338	-662	-1196	-1440	-1168	-484	114	107	-200	-254	-174	-226	-289	-240	-209	-261	-298	-300	-319	-363	-394	-389	-396	-433	-459	-468	-487	-515	-538	-552	-554	-547	-524	-494	-468	-431	-363	-291	-256	-233	-219	-226	-242	-258	-268	-272
11:51:36.1530	599616100011132901	-310	-356	-352	-338	-352	-359	-380	-417	-438	-456	-452	-433	-438	-431	-408	-417	-433	-410	-412	-475	-496	-466	-454	-461	-477	-494	-503	-510	-510	-501	-505	-524	-512	-463	-431	-431	-419	-412	-477	-498	-387	-340	-401	-412	-382	-368	-373	-375	-373	-370	-366	-382	-398	-396	-412	-440	-408	-361	-368	-375	-354	-359	-377	-368	-345	-307	-265	-368	-762	-1270	-1461	-1056	-305
11:51:36.6940	599616100575802366	114	-48	-270	-226	-188	-268	-296	-275	-331	-440	-482	-487	-531	-540	-489	-466	-489	-531	-550	-536	-540	-568	-564	-540	-522	-468	-510	-687	-704	-554	-498	-475	-403	-354	-321	-289	-305	-345	-345	-291	-198	-170	-247	-282	-256	-261	-286	-282	-228	-163	-195	-282	-284	-261	-312	-380	-319	-184	-174	-277	-333	-284	-282	-494	-517	-205	-151	-298	-249	-219	-286	-291	-286
11:51:37.2640	599616101140482009	-307	-300	-296	-331	-375	-415	-442	-435	-415	-412	-408	-384	-366	-370	-359	-331	-335	-359	-354	-340	-354	-373	-366	-349	-354	-352	-333	-317	-321	-328	-321	-303	-296	-277	-207	-249	-624	-1182	-1445	-1149	-459	86	58	-193	-188	-125	-186	-219	-212	-235	-247	-247	-272	-291	-289	-300	-324	-331	-347	-391	-449	-484	-459	-440	-505	-545	-508	-498	-487	-401	-314	-268	-216
11:51:37.8340	599616101705141304	-191	-181	-160	-202	-317	-405	-440	-459	-435	-408	-408	-391	-352	-342	-363	-363	-338	-326	-331	-319	-300	-296	-305	-314	-317	-338	-389	-431	-426	-396	-342	-230	-202	-275	-291	-279	-298	-312	-314	-319	-328	-333	-333	-340	-361	-403	-433	-403	-361	-377	-431	-473	-515	-578	-594	-468	-228	-146	-340	-440	-338	-284	-312	-422	-508	-373	-408	-767	-827	-596	-575	-610	-529
11:51:38.4640	599616102269826030	-489	-494	-496	-554	-587	-498	-354	-338	-657	-1098	-1340	-1277	-757	-160	-90	-310	-338	-265	-289	-324	-328	-387	-405	-307	-237	-263	-319	-352	-347	-352	-377	-398	-417	-445	-470	-494	-515	-505	-445	-396	-468	-631	-580	-242	-67	-193	-202	-95	-114	-135	-102	-167	-300	-382	-401	-319	-205	-300	-468	-396	-277	-324	-368	-405	-491	-456	-384	-438	-452	-419	-442	-445	-449
11:51:38.9740	599616102834480238	-429	-333	-300	-321	-291	-230	-277	-391	-403	-312	-275	-389	-468	-363	-289	-382	-494	-487	-410	-387	-431	-417	-338	-321	-352	-340	-319	-375	-445	-422	-375	-408	-424	-370	-305	-235	-167	-193	-307	-331	-235	-244	-298	-249	-242	-305	-352	-345	-275	-242	-272	-235	-142	-163	-389	-837	-1282	-1289	-762	-72	214	-18	-282	-270	-132	-114	-230	-328	-380	-545	-804	-799	-603
11:51:39.5440	599616103399149707	-585	-652	-641	-629	-643	-641	-641	-678	-755	-806	-769	-729	-746	-743	-694	-629	-559	-482	-417	-389	-375	-352	-333	-335	-354	-368	-363	-368	-391	-389	-377	-401	-429	-431	-456	-487	-487	-505	-552	-585	-573	-531	-512	-519	-501	-429	-277	-179	-249	-249	-146	-195	-307	-310	-321	-417	-463	-412	-375	-363	-298	-244	-254	-170	58	156	-34	-93	39	-44	-174	-104	-81
11:51:40.0840	599616103963809002	-209	-422	-613	-338	79	-67	-366	-540	-727	-739	-634	-592	-578	-538	-484	-454	-387	-205	-79	-291	-552	-433	-335	-755	-1431	-1627	-1018	-242	16	-167	-305	-144	-18	-167	-317	-363	-377	-373	-359	-347	-317	-270	-242	-240	-419	-596	-431	-263	-338	-466	-449	-410	-603	-739	-585	-489	-573	-531	-256	-86	-254	-401	-282	-223	-426	-494	-240	-163	-363	-412	-326	-345	-382
11:51:40.6540	599616104528468297	-356	-366	-403	-375	-335	-356	-312	-237	-331	-431	-394	-375	-387	-368	-373	-429	-445	-422	-431	-424	-398	-408	-433	-487	-550	-587	-615	-585	-526	-531	-531	-487	-468	-475	-452	-398	-298	-95	-30	-244	-356	-286	-289	-317	-293	-293	-312	-333	-366	-380	-361	-342	-347	-359	-340	-300	-286	-284	-272	-265	-261	-191	-46	32	-132	-627	-1273	-1564	-1170	-391	79	-62	-282
11:51:41.1940	599616105093158110	-179	-97	-198	-251	-235	-242	-310	-389	-380	-338	-370	-419	-401	-380	-415	-466	-524	-552	-550	-578	-610	-697	-878	-764	-272	-90	-289	-296	-240	-328	-321	-167	-123	-296	-384	-307	-258	-261	-319	-368	-342	-370	-470	-491	-463	-498	-463	-387	-503	-559	-424	-473	-594	-459	-256	-263	-359	-410	-431	-335	-270	-417	-524	-422	-310	-317	-338	-328	-319	-333	-389	-417	-424
11:51:41.8240	599616105657812318	-482	-508	-431	-384	-438	-445	-375	-373	-445	-463	-405	-405	-461	-398	-319	-391	-431	-382	-391	-398	-382	-410	-424	-396	-377	-331	-293	-324	-326	-312	-384	-435	-377	-314	-300	-426	-823	-1289	-1412	-979	-142	359	76	-233	-111	-48	-163	-200	-135	-174	-352	-359	-256	-312	-361	-333	-359	-410	-447	-498	-557	-594	-596	-582	-573	-578	-575	-540	-517	-536	-494	-352	-226
11:51:42.3640	599616106222466526	-200	-223	-219	-179	-128	-58	0	-51	-125	-167	-326	-452	-468	-582	-568	-419	-412	-387	-249	-277	-524	-596	-424	-286	-135	-100	-338	-517	-508	-410	-237	-202	-307	-324	-433	-578	-498	-375	-389	-494	-459	-305	-331	-426	-396	-417	-477	-398	-312	-387	-424	-326	-335	-419	-405	-366	-349	-396	-461	-454	-494	-571	-508	-449	-494	-466	-424	-484	-508	-440	-377	-387	-429
11:51:42.9340	599616106787135995	-328	-254	-559	-1135	-1580	-1510	-813	88	433	44	-228	-13	90	-58	-100	-135	-373	-484	-417	-461	-482	-352	-340	-480	-543	-536	-533	-526	-580	-645	-662	-790	-909	-811	-664	-615	-596	-529	-426	-373	-377	-368	-356	-380	-394	-368	-340	-307	-254	-205	-219	-256	-291	-429	-526	-419	-193	123	128	-398	-655	-412	-359	-398	-32	401	312	-41	-139	-186	-401	-533	-459
11:51:43.4740	599616107351795290	-424	-368	-172	-174	-349	-501	-494	-466	-368	-244	-536	-673	-498	-557	-636	-620	-645	-627	-561	-519	-482	-312	67	240	153	146	62	23	130	93	-46	-62	-46	-228	-403	-174	-65	-375	-361	-181	-512	-1128	-1426	-1307	-851	-226	-139	-440	-426	-286	-310	-422	-491	-494	-454	-401	-403	-403	-424	-538	-601	-522	-463	-473	-482	-515	-554	-571	-580	-575	-559	-561	-554
11:51:44.0440	599616107916454585	-510	-447	-366	-291	-261	-277	-345	-391	-370	-370	-412	-435	-398	-347	-366	-387	-387	-415	-405	-359	-408	-515	-538	-512	-503	-480	-447	-417	-408	-459	-466	-419	-419	-424	-394	-375	-380	-391	-387	-366	-363	-382	-380	-382	-449	-503	-438	-366	-368	-384	-359	-314	-324	-384	-375	-347	-380	-370	-328	-338	-359	-359	-380	-382	-314	-303	-366	-401	-412	-394	-373	-396	-398
11:51:44.6140	599616108481113880	-317	-303	-601	-1163	-1550	-1368	-694	-88	-20	-268	-340	-272	-279	-321	-347	-366	-356	-363	-419	-454	-433	-422	-442	-440	-419	-419	-438	-477	-545	-568	-559	-571	-559	-540	-543	-496	-415	-382	-345	-277	-263	-256	-212	-186	-200	-205	-216	-265	-279	-312	-422	-461	-408	-396	-412	-387	-373	-398	-398	-342	-270	-268	-303	-265	-181	-160	-214	-230	-261	-356	-431	-508	-531
11:51:45.1830	599616109045742657	-382	-233	-338	-515	-503	-449	-447	-456	-487	-496	-447	-340	-233	-167	-188	-293	-263	-235	-449	-496	-254	-214	-321	-249	-191	-202	-186	-205	-205	-170	-186	-312	-685	-1221	-1417	-986	-279	149	62	-198	-214	-116	-144	-200	-226	-268	-272	-258	-261	-263	-317	-422	-466	-429	-431	-475	-491	-547	-571	-461	-424	-526	-575	-538	-466	-415	-561	-785	-748	-592	-543	-498	-433
11:51:45.7540	599616109610401952	-340	-86	27	-256	-279	-27	-114	-193	-128	-200	-219	-172	-228	-277	-268	-331	-347	-286	-289	-233	-242	-398	-445	-366	-305	-340	-345	-286	-286	-307	-307	-361	-391	-333	-338	-363	-391	-603	-767	-603	-419	-461	-571	-587	-573	-571	-522	-484	-510	-519	-501	-498	-484	-429	-375	-352	-263	-151	-401	-1091	-1562	-1296	-554	13	11	-235	-251	-191	-244	-284	-254	-205	-216
11:51:46.3240	599616110175061247	-284	-317	-321	-331	-335	-338	-347	-370	-412	-484	-505	-463	-496	-585	-568	-475	-419	-363	-305	-349	-408	-317	-240	-300	-286	-223	-277	-326	-312	-310	-251	-179	-233	-298	-298	-324	-361	-359	-345	-354	-370	-370	-359	-363	-373	-359	-342	-347	-363	-384	-391	-377	-366	-356	-345	-356	-361	-328	-300	-324	-361	-370	-349	-349	-361	-333	-333	-380	-373	-331	-324	-340	-342
11:51:46.8640	599616110739700194	-347	-363	-375	-361	-328	-326	-373	-401	-401	-468	-545	-529	-466	-408	-496	-916	-1473	-1678	-1242	-419	72	-95	-328	-247	-212	-300	-305	-275	-303	-335	-345	-340	-340	-349	-354	-361	-391	-417	-426	-438	-480	-519	-526	-519	-522	-522	-496	-459	-438	-387	-300	-240	-216	-205	-195	-200	-207	-209	-209	-219	-244	-254	-240	-242	-261	-265	-263	-270	-284	-277	-270	-321	-396
11:51:47.4340	599616111304354402	-387	-335	-335	-342	-321	-328	-389	-435	-398	-349	-363	-380	-352	-328	-335	-333	-319	-324	-335	-324	-307	-310	-324	-328	-317	-324	-359	-359	-331	-335	-359	-373	-366	-361	-384	-394	-319	-228	-216	-298	-384	-412	-433	-396	-335	-368	-403	-389	-394	-422	-422	-335	-186	-188	-345	-594	-1121	-1524	-1235	-482	79	58	-209	-247	-219	-298	-305	-261	-298	-265	-170	-282	-424
11:51:47.9740	599616111869008614	-366	-328	-387	-405	-377	-368	-429	-494	-484	-501	-596	-634	-589	-552	-522	-494	-449	-366	-293	-254	-228	-233	-268	-277	-251	-244	-249	-263	-312	-338	-321	-319	-319	-317	-342	-349	-321	-335	-384	-331	-251	-361	-480	-405	-352	-382	-331	-261	-333	-408	-326	-265	-321	-368	-373	-377	-384	-368	-205	-130	-347	-349	-142	-137	-251	-349	-305	-244	-345	-459	-487	-459	-433
11:51:48.6040	599616112433662822	-475	-503	-440	-431	-536	-559	-496	-498	-536	-536	-515	-508	-515	-512	-494	-496	-503	-470	-415	-366	-452	-827	-1326	-1541	-1189	-426	72	-72	-347	-328	-272	-333	-361	-340	-356	-377	-370	-356	-366	-382	-380	-389	-408	-394	-389	-394	-373	-310	-207	-219	-403	-662	-706	-324	-76	-275	-447	-312	-158	-200	-286	-391	-410	-349	-363	-363	-326	-331	-345	-338	-342	-256	-18
11:51:49.1440	599616112998317030	221	305	256	198	139	-18	-284	-121	340	153	-186	-62	-34	-254	-475	-405	-11	102	-116	-93	27	-41	-53	-46	-256	-352	-160	-130	-331	-263	-18	-212	-571	-652	-368	65	-79	-475	-447	-342	-452	-781	-960	-694	-461	-543	-638	-622	-636	-655	-594	-536	-454	-347	-296	-317	-300	-289	-573	-1144	-1550	-1403	-748	-58	79	-160	-179	-135	-296	-319	-198	-216	-277
11:51:49.6840	599616113562971238	-249	-228	-186	-86	-100	-200	-219	-209	-270	-373	-463	-517	-568	-624	-650	-666	-650	-564	-403	-249	-263	-286	-212	-270	-214	18	-44	-233	-272	-347	-449	-445	-410	-447	-484	-452	-422	-429	-412	-384	-384	-382	-361	-359	-333	-256	-289	-403	-401	-356	-391	-415	-380	-356	-368	-375	-384	-398	-398	-391	-389	-384	-363	-363	-403	-442	-445	-433	-422	-403	-394	-412	-433
11:51:50.2840	599616114127615276	-424	-412	-405	-389	-377	-408	-487	-526	-480	-452	-463	-445	-412	-401	-394	-387	-401	-424	-422	-384	-312	-296	-559	-1105	-1534	-1445	-809	-72	109	-179	-268	-137	-142	-219	-247	-268	-286	-293	-298	-305	-314	-342	-363	-349	-361	-396	-398	-405	-473	-480	-368	-275	-258	-354	-417	-272	-184	-233	-212	-177	-184	-160	-81	-23	-142	-314	-310	-265	-312	-317	-293	-328	-347
11:51:50.8240	599616114692274571	-342	-354	-359	-342	-352	-382	-412	-429	-366	-300	-391	-508	-461	-375	-394	-454	-468	-433	-456	-512	-435	-349	-401	-449	-429	-426	-442	-435	-412	-415	-419	-398	-377	-375	-380	-352	-317	-321	-377	-477	-463	-296	-242	-326	-326	-279	-293	-317	-319	-335	-347	-321	-307	-321	-233	60	319	93	-547	-790	-503	-114	221	-20	-517	-422	-163	-76	-86	-405	-685	-578	-470
11:51:51.3640	599616115256964382	-382	-242	-401	-634	-564	-477	-531	-592	-631	-659	-732	-788	-715	-671	-694	-615	-438	-167	-20	-277	-270	111	135	93	111	-79	-149	-118	-193	-107	328	557	317	186	221	142	83	125	123	46	-13	-51	-116	-184	-396	-732	-683	-487	-347	81	74	-629	-1135	-990	-526	-48	228	107	-23	44	44	-11	-32	-23	-62	-144	-160	-139	-132	-109	-125	-193	-228
11:51:51.9940	599616115821562643	-193	-151	-160	-209	-282	-321	-244	-193	-244	-202	-137	-200	-387	-722	-1077	-1282	-1093	-373	221	69	-356	-435	-415	-923	-1433	-1149	-932	-1168	-1079	-841	-862	-848	-422	209	314	62	114	100	-265	-307	32	-9	-293	-356	-331	-580	-1214	-1193	-538	-690	-783	79	151	-865	-813	233	46	-678	67	748	144	-86	202	-69	-543	-659	-477	-174	-314	-848	-892	-543	-394
11:51:52.5340	599616116386221938	-440	-489	-454	-482	-624	-559	-391	-452	-538	-515	-578	-671	-664	-680	-704	-622	-561	-596	-589	-531	-522	-522	-477	-440	-463	-494	-480	-484	-515	-524	-536	-554	-538	-489	-454	-447	-445	-433	-415	-417	-429	-396	-333	-415	-813	-1363	-1639	-1328	-559	41	-9	-275	-205	-65	-130	-214	-221	-237	-258	-286	-342	-370	-361	-375	-389	-373	-377	-412	-435	-440	-454	-494	-536
11:51:53.0740	599616116950865972	-545	-559	-587	-540	-438	-377	-326	-249	-223	-272	-324	-305	-256	-256	-256	-223	-256	-331	-347	-314	-303	-335	-380	-377	-331	-312	-314	-307	-312	-310	-272	-254	-300	-373	-382	-317	-324	-440	-442	-326	-340	-419	-398	-373	-412	-456	-429	-352	-324	-342	-352	-368	-410	-417	-384	-377	-391	-370	-338	-326	-340	-342	-338	-352	-368	-380	-384	-370	-363	-363	-349	-303	-233
11:51:53.6440	599616117515510010	-212	-244	-440	-932	-1440	-1580	-1203	-426	151	30	-265	-212	-142	-221	-270	-305	-345	-352	-352	-328	-305	-321	-347	-368	-408	-440	-442	-442	-456	-480	-510	-512	-498	-496	-487	-452	-410	-363	-296	-230	-195	-186	-191	-207	-249	-277	-261	-251	-270	-282	-277	-270	-268	-275	-286	-300	-314	-300	-172	144	361	207	-65	-282	-172	219	184	-81	-167	-300	-382	-408	-608
11:51:54.2140	599616118080245600	-706	-515	-440	-545	-445	-132	-97	-347	-265	76	170	67	20	41	-86	-317	-256	-76	-193	-338	-300	-298	-317	-230	-198	-247	-121	39	-27	-114	-51	0	-16	16	53	-158	-762	-1363	-1419	-841	-55	312	165	-23	0	23	-95	-373	-655	-594	-209	76	9	-146	-158	-165	-216	-261	-310	-387	-426	-382	-356	-389	-384	-356	-352	-442	-456	-202	-90	-223	-179
11:51:54.7550	599616118644798082	-9	27	-4	-137	-307	-195	-46	-209	-370	-370	-347	-477	-853	-823	-512	-1037	-1510	-1046	-790	-951	-757	-463	-638	-883	-736	-592	-638	-638	-634	-650	-606	-568	-559	-538	-522	-529	-526	-517	-512	-508	-501	-482	-473	-461	-398	-333	-384	-466	-424	-249	79	240	-83	-503	-631	-505	-167	247	163	-242	51	531	279	4	109	2	-515	-979	-988	-736	-270	354	415
11:51:55.3540	599616119209452290	-158	-550	-538	-494	-461	-501	-592	-501	-503	-627	-575	-501	-489	-470	-491	-559	-564	-484	-480	-557	-578	-573	-592	-587	-517	-510	-692	-732	-429	-144	-16	95	107	-23	-221	-319	-298	-312	-349	-401	-435	-391	-366	-377	-349	-293	-221	-165	-165	-160	-167	-233	-265	-240	-240	-277	-296	-298	-310	-347	-377	-373	-354	-342	-338	-333	-342	-347	-338	-331	-342	-363	-373
11:51:55.9240	599616119774086154	-373	-394	-415	-398	-384	-396	-387	-352	-349	-429	-487	-484	-536	-587	-522	-431	-424	-438	-438	-475	-505	-489	-454	-401	-442	-799	-1363	-1629	-1261	-461	93	-41	-333	-270	-184	-254	-270	-249	-284	-312	-382	-463	-447	-468	-524	-489	-456	-480	-496	-510	-557	-592	-561	-515	-482	-405	-368	-426	-422	-352	-338	-338	-284	-244	-240	-223	-212	-240	-268	-258	-249	-265	-261
11:51:56.4940	599616120338745449	-198	-198	-321	-368	-342	-394	-415	-377	-380	-433	-491	-477	-415	-405	-419	-380	-333	-349	-384	-373	-380	-380	-303	-338	-459	-417	-328	-370	-494	-573	-531	-480	-501	-508	-475	-431	-398	-403	-417	-405	-410	-435	-431	-403	-347	-256	-270	-347	-312	-366	-561	-559	-461	-517	-524	-449	-487	-487	-387	-338	-347	-491	-904	-1382	-1506	-1035	-275	76	-142	-373	-359	-342	-384
11:51:57.0340	599616120903374226	-403	-403	-417	-440	-433	-435	-503	-580	-561	-526	-606	-704	-673	-613	-671	-708	-641	-634	-694	-671	-606	-582	-552	-477	-408	-359	-321	-279	-251	-272	-293	-305	-321	-317	-284	-223	-177	-244	-361	-394	-394	-417	-403	-366	-366	-361	-356	-352	-314	-324	-370	-335	-303	-345	-342	-324	-389	-438	-445	-435	-401	-440	-552	-594	-564	-547	-545	-526	-505	-503	-487	-454	-468
11:51:57.5740	599616121468033521	-517	-517	-473	-452	-461	-477	-491	-550	-610	-571	-515	-552	-573	-524	-510	-533	-515	-445	-370	-491	-951	-1415	-1426	-885	-156	114	-144	-338	-300	-300	-324	-279	-279	-333	-359	-356	-363	-380	-391	-396	-410	-445	-466	-419	-370	-408	-424	-496	-715	-774	-662	-629	-615	-561	-533	-491	-401	-338	-324	-265	-111	-93	-279	-223	114	286	181	-125	-354	-261	-254	-489	-564
11:51:58.1440	599616122032692816	-435	-349	-335	-349	-422	-470	-466	-426	-331	-300	-314	-377	-538	-592	-505	-384	-205	-244	-475	-433	-328	-438	-473	-410	-403	-405	-389	-384	-384	-375	-363	-382	-396	-356	-333	-338	-333	-338	-345	-324	-303	-328	-382	-419	-452	-491	-491	-433	-466	-834	-1417	-1688	-1301	-498	44	-46	-247	-179	-195	-296	-258	-235	-286	-303	-296	-314	-326	-328	-331	-342	-370	-387	-387
11:51:58.7440	599616122597316506	-408	-442	-459	-477	-543	-599	-592	-606	-699	-694	-463	-298	-286	-228	-200	-263	-270	-242	-251	-254	-256	-277	-272	-258	-272	-279	-268	-277	-296	-286	-265	-244	-223	-244	-272	-249	-223	-214	-233	-333	-307	-23	90	-212	-480	-401	-286	-342	-363	-305	-303	-335	-324	-291	-286	-293	-293	-291	-293	-291	-284	-272	-275	-286	-270	-247	-261	-305	-338	-338	-321	-296	-277
11:51:59.3140	599616123161950370	-284	-293	-282	-247	-193	-160	-188	-359	-855	-1438	-1503	-939	-209	109	-93	-268	-174	-156	-221	-202	-202	-256	-261	-242	-263	-300	-331	-359	-370	-370	-373	-405	-489	-540	-512	-498	-524	-512	-433	-419	-447	-312	-212	-307	-303	-226	-235	-235	-205	-179	-86	-65	-142	48	338	247	-16	0	37	-135	-146	-25	-167	-463	-277	-34	-144	93	398	233	209	307	-23
11:51:59.8850	599616123726579147	-11	389	60	-335	-18	149	-9	16	-20	-496	-925	-557	-284	-659	-377	37	-494	-802	-648	-655	-391	-291	-568	-212	326	65	-431	-554	-629	-592	-382	-571	-762	-564	-370	53	477	282	11	114	186	97	-114	-599	-1060	-1079	-655	0	319	32	-151	53	62	-79	-25	-69	-279	-209	-39	-291	-729	-1121	-1363	-1070	-622	-575	-706	-804	-795	-664	-596	-606	-540
11:52:00.4830	599616124291238442	-452	-410	-366	-270	-282	-676	-934	-459	-116	-433	-699	-769	-788	-673	-608	-615	-545	-475	-384	-118	277	552	447	76	-258	-452	-335	-23	-48	-456	-669	-512	-447	-522	-489	-440	-447	-442	-433	-447	-456	-468	-487	-456	-412	-415	-429	-461	-508	-512	-484	-431	-387	-415	-459	-466	-456	-522	-594	-505	-473	-552	-508	-412	-293	-181	-219	-202	-156	-289	-403	-347	-207
11:52:00.9940	599616124855867219	-412	-1140	-1685	-1634	-1081	-254	314	366	-6	-382	-433	-419	-352	-244	-214	-107	44	95	-27	-468	-939	-666	-74	-181	-440	-219	37	86	-65	-251	-298	-296	-149	39	-170	-536	-671	-678	-275	151	-398	-1261	-1217	-804	-806	-818	-678	-655	-657	-589	-559	-545	-484	-396	-373	-470	-494	-340	-179	74	268	-55	-326	216	778	58	-927	-503	184	366	694	356	-664
11:52:01.5340	599616125420526514	-906	-606	-750	-930	-797	-727	-601	93	531	-142	-261	613	711	191	200	347	144	16	83	62	-23	-60	-88	-104	-88	-79	-93	-118	-149	-165	-163	-167	-153	-149	-410	-1011	-1464	-1482	-1191	-554	-41	-212	-387	-326	-860	-1252	-438	380	233	-2	11	-107	-244	-503	-799	-713	-676	-902	-885	-727	-832	-771	-195	-130	-685	-955	-1184	-1039	-261	-209	-834	-636	-195
11:52:02.1340	599616125985155291	-468	-636	-415	-373	-463	-484	-503	-508	-487	-494	-498	-491	-505	-501	-473	-461	-461	-445	-424	-405	-396	-363	-240	-144	-247	-412	-396	-256	-270	-53	561	529	-93	-340	-382	-505	-498	-433	-498	-568	-557	-554	-561	-550	-552	-536	-491	-482	-456	-338	-284	-387	-419	-347	-310	-326	-382	-447	-505	-566	-557	-461	-412	-435	-424	-380	-370	-403	-424	-226	282	289	-694
11:52:02.7040	599616126549784068	-1347	-1009	-540	-223	-191	-482	-526	-333	-263	-284	-340	-461	-524	-475	-426	-340	-291	-396	-373	-282	-494	-669	-531	-468	-438	-193	-144	-438	-321	370	636	235	18	-123	-596	-811	-561	-279	307	925	622	104	65	-20	-263	-221	109	265	326	363	188	16	30	55	-41	-181	-151	0	48	37	-20	-72	-39	-44	-74	-79	-111	-167	-331	-484	-417	-401	-391
11:52:03.2440	599616127114443363	-249	-258	-335	-303	-265	-268	-456	-713	-596	-230	-249	-778	-587	296	146	-631	-955	-969	-725	-510	-242	-184	-834	-955	-522	-813	-1123	-746	-466	-538	-456	-305	-319	-408	-545	-587	-466	-510	-1044	-1736	-1867	-1303	-564	-219	-440	-657	-449	-235	-403	-697	-704	-552	-517	-545	-585	-641	-622	-575	-622	-690	-671	-615	-575	-575	-627	-664	-664	-673	-690	-676	-631	-580	-536
11:52:03.8140	599616127679072140	-482	-410	-352	-333	-321	-300	-319	-403	-449	-405	-380	-415	-426	-405	-396	-412	-426	-417	-412	-419	-408	-391	-394	-405	-408	-391	-370	-354	-359	-384	-401	-408	-401	-387	-401	-456	-447	-368	-380	-415	-363	-340	-356	-324	-279	-277	-286	-384	-522	-491	-410	-456	-491	-510	-601	-592	-475	-438	-466	-468	-396	-338	-373	-401	-373	-352	-354	-347	-335	-356	-380	-366	-338
11:52:04.3540	599616128243706000	-349	-540	-1067	-1604	-1522	-883	-277	-46	-146	-279	-293	-279	-265	-354	-503	-496	-438	-468	-473	-447	-482	-533	-561	-559	-389	-272	-482	-610	-289	48	-121	-382	-300	-272	-333	20	466	265	-130	-111	-114	-233	-111	-34	-128	-86	-34	-104	-102	-27	-6	72	272	419	398	291	205	202	284	249	37	-90	-79	-58	16	97	23	-116	-298	-396	-263	-216	-186
11:52:04.9240	599616128808360212	65	-51	-634	-536	-46	-410	-750	-426	-354	-484	-177	137	-167	-743	-878	-198	258	-174	-300	-142	-314	-412	-433	-529	-533	-561	-860	-830	-146	167	81	158	-6	-312	-179	95	2	-149	-58	-125	-662	-1331	-1599	-1266	-517	65	2	-349	-324	-2	163	139	9	-160	-179	-100	-170	-272	-314	-354	-331	-300	-300	-284	-389	-769	-946	-704	-697	-1009	-1219	-1023	-764
11:52:05.5540	599616129372988989	-1039	-1088	-417	-398	-1046	-890	-396	-384	-419	-363	-380	-384	-398	-466	-463	-424	-438	-431	-405	-449	-512	-510	-445	-324	-228	-240	-291	-312	-298	-331	-475	-592	-582	-545	-536	-529	-524	-524	-571	-575	-529	-531	-484	-429	-522	-543	-396	-410	-543	-503	-394	-422	-543	-531	-380	-282	-142	39	-37	-151	-121	-256	-275	0	-93	-561	-678	-256	111	-100	-349	-198	-142
11:52:06.0940	599616129937617766	-268	-459	-627	-463	-181	-230	-531	-965	-1527	-1690	-1079	-256	48	-191	-417	-361	-293	-368	-272	-51	-86	-60	-30	-422	-540	-249	-209	-181	-51	-158	-345	-403	-403	-431	-296	-191	-412	-524	-517	-240	445	515	27	-81	20	-2	11	116	121	-18	-88	-44	-111	-151	-37	-128	-401	-650	-554	-137	-377	-1018	-1060	-851	-813	-685	-426	-347	-401	-422	-508	-433	-261
11:52:06.6340	599616130502261800	-354	-496	-575	-547	-263	-272	-697	-720	-459	-473	-610	-643	-512	-396	-459	-543	-491	-447	-508	-489	-377	-284	-219	-289	-459	-519	-531	-596	-564	-494	-554	-540	-326	-366	-659	-571	-333	-426	-524	-429	-449	-571	-540	-405	-312	-503	-1088	-1587	-1485	-832	-153	20	-244	-449	-410	-370	-415	-422	-417	-429	-433	-456	-498	-517	-529	-552	-552	-543	-557	-573	-575	-580	-608
11:52:07.2040	599616131066885490	-638	-629	-601	-596	-582	-533	-489	-484	-475	-394	-317	-317	-331	-305	-272	-272	-279	-272	-284	-312	-314	-284	-275	-310	-356	-373	-354	-333	-335	-340	-342	-380	-417	-363	-296	-305	-310	-291	-300	-296	-268	-272	-298	-312	-321	-324	-338	-366	-368	-368	-375	-352	-324	-356	-433	-468	-429	-391	-394	-389	-370	-368	-380	-396	-394	-370	-382	-396	-373	-359	-342	-305	-289
11:52:07.7440	599616131631509180	-303	-293	-275	-291	-277	-230	-265	-543	-1130	-1601	-1426	-680	51	214	-13	-116	-123	-188	-221	-256	-324	-366	-363	-354	-298	-132	-93	-244	-214	-153	-338	-440	-354	-268	-258	-377	-538	-435	-193	-293	-442	-172	93	-62	-177	18	39	-81	128	375	184	-144	-275	-216	-32	11	-116	-170	-279	-352	-102	-46	-240	-181	-254	-473	-512	-613	-617	-342	-44	88	32
11:52:08.3140	599616132196132870	-51	-86	-137	-216	-345	-585	-694	-550	-561	-664	-554	-494	-468	-410	-508	-317	114	-4	-60	410	454	158	142	144	30	-83	-408	-736	-571	-342	-484	-389	-83	-415	-867	-706	-456	-477	-592	-617	-491	-391	-368	-349	-557	-1070	-1517	-1494	-909	-151	90	-195	-326	-195	-195	-277	-268	-251	-291	-324	-261	-247	-417	-438	-307	-321	-363	-359	-412	-482	-519	-550	-573
11:52:08.9140	599616132760787082	-547	-442	-172	93	-118	-319	-48	-125	-540	-550	-366	-345	-359	-324	-305	-310	-307	-319	-340	-340	-352	-389	-384	-352	-352	-363	-361	-375	-408	-445	-482	-403	-62	198	93	-130	-256	-132	30	-23	-177	-170	-74	-300	-538	-256	-9	-338	-505	-272	-321	-415	-240	-214	-321	-277	-233	-352	-354	-191	-200	-314	-468	-624	-503	-303	-361	-408	-391	-496	-463	-275	-256
11:52:09.4540	599616133325390428	-373	-279	-83	-160	-408	-503	-438	-391	-349	-293	-438	-958	-1475	-1366	-692	46	202	-345	-561	-254	-132	-142	-151	-205	-235	-394	-519	-389	-356	-473	-405	-319	-447	-545	-480	-433	-456	-498	-550	-578	-531	-515	-545	-510	-473	-438	-328	-223	-135	-83	-163	-184	-123	-212	-219	-111	-111	-139	-216	-312	-338	-401	-449	-394	-366	-415	-429	-415	-426	-431	-396	-345	-303
11:52:10.0240	599616133890019205	-319	-389	-417	-382	-366	-373	-387	-466	-538	-498	-447	-463	-475	-468	-505	-568	-550	-480	-489	-519	-487	-454	-466	-466	-449	-449	-449	-431	-410	-401	-396	-375	-345	-340	-366	-375	-394	-417	-375	-305	-279	-298	-328	-328	-335	-377	-373	-305	-307	-580	-1086	-1457	-1363	-734	-9	123	-188	-303	-219	-212	-256	-277	-312	-328	-300	-265	-268	-293	-312	-326	-349	-377	-431
11:52:10.5940	599616134454647982	-498	-505	-473	-459	-459	-487	-561	-673	-736	-645	-519	-456	-349	-249	-230	-221	-193	-172	-195	-230	-230	-214	-223	-254	-279	-310	-368	-377	-282	-188	-251	-415	-468	-408	-384	-408	-401	-375	-368	-377	-370	-359	-356	-356	-352	-340	-338	-340	-258	-135	-156	-258	-268	-333	-491	-489	-377	-384	-433	-438	-447	-415	-340	-326	-354	-377	-389	-384	-375	-361	-340	-338	-370
11:52:11.1380	599616135019276759	-408	-384	-314	-310	-380	-394	-340	-282	-265	-335	-480	-748	-1072	-1263	-911	-104	202	-39	-118	30	221	139	-100	60	293	132	-55	-118	-272	-261	-86	-223	-466	-333	-27	-109	-454	-550	-526	-615	-613	-263	165	146	-123	-186	9	179	107	-13	32	125	9	-212	-228	-132	-151	-230	-247	-219	-219	-219	-191	-170	-214	-291	-324	-331	-317	-265	-242	-263	-263
11:52:11.7040	599616135583905532	-263	-284	-275	-247	-270	-394	-468	-356	-282	-352	-354	-279	-279	-310	-296	-298	-340	-349	-317	-356	-501	-459	-207	-174	-300	-254	-209	-401	-498	-226	-65	-230	-489	-501	-125	-37	-242	-153	-46	-128	-170	-151	-144	-104	-137	-463	-1014	-1375	-1184	-477	191	275	55	67	123	11	-55	-72	-114	-121	-125	-156	-165	-174	-202	-212	-256	-305	-265	-293	-186	216	268
11:52:12.3040	599616136148534313	-93	-429	-951	-1273	-561	384	526	216	-135	-226	107	354	412	354	149	125	163	72	-13	-263	-503	-384	-345	-585	-694	-725	-844	-930	-995	-1051	-1039	-967	-876	-834	-837	-820	-743	-547	79	960	1014	459	533	722	333	86	209	214	97	60	34	-9	-11	0	-23	-58	-130	-151	-34	13	-44	-6	0	-417	-934	-1154	-1140	-477	293	165	-100	-74	-326
11:52:12.8740	599616136713152916	-417	-107	-268	-1004	-1200	-419	-48	-736	-1011	-470	-550	-1562	-2140	-1102	396	282	-452	-310	-95	-130	86	163	-321	-697	-596	-480	-230	-9	-268	-380	-328	-785	-1193	-993	-811	-890	-855	-650	-431	-419	-673	-736	-370	65	214	-396	-641	447	832	132	-20	-25	-384	-655	-895	-792	-93	53	-634	-697	-387	-711	-834	-522	-489	-615	-589	-522	-554	-582	-522	-435	-408
11:52:13.4140	599616137277761349	-461	-412	-216	-191	-377	-508	-517	-573	-657	-575	-510	-622	-638	-333	23	-79	-494	-496	-317	-431	-272	11	-151	-195	-34	-289	-519	-503	-631	-624	-599	-687	-571	-531	-671	-533	-368	-613	-741	-550	-454	-456	-466	-435	-235	-207	-382	-282	-305	-631	-536	-102	-177	-841	-1303	-1301	-827	-53	142	-258	-449	-431	-475	-494	-419	-340	-244	-163	-200	-263	-345	-333	-125
11:52:13.9840	599616137842390126	-88	-328	-456	-445	-575	-725	-718	-750	-825	-771	-662	-673	-708	-627	-508	-419	-244	-88	-256	-475	-403	-307	-340	-349	-342	-375	-375	-256	-207	-230	-18	44	-268	-282	-9	-125	-291	-116	-151	-408	-512	-536	-463	-319	-226	-123	-72	-107	-100	-83	-116	-139	-144	-186	-230	-219	-167	-107	46	205	100	-69	-107	-198	-275	-282	-445	-624	-652	-582	-419	-335	-359
11:52:14.5240	599616138406998556	-289	-135	9	25	-200	-307	-53	76	-90	-202	-186	-181	-251	-368	-454	-307	-44	-69	-235	-494	-1107	-1536	-1175	-498	-60	55	-132	-293	-242	-254	-317	-228	-153	-153	-93	-114	-186	-142	-144	-233	-254	-270	-517	-895	-715	-195	-258	-613	-631	-384	-214	-205	-207	-258	-289	-305	-692	-906	-394	-20	-111	-195	-160	-135	-165	-165	-160	-200	-237	-212	-198	-249	-310
11:52:15.0940	599616138971647678	-340	-429	-582	-475	-179	-188	-368	-361	-324	-359	-366	-435	-454	-305	-319	-608	-813	-568	-184	-326	-687	-659	-484	-422	-156	123	-67	-303	-200	-137	-261	-268	-186	-247	-359	-370	-305	-275	-359	-503	-538	-592	-697	-564	-356	-305	-463	-608	-491	-391	-396	-331	-370	-566	-599	-480	-256	-86	-251	-401	-559	-1133	-1597	-1310	-578	-53	37	-13	23	158	286	207	-18
11:52:15.6940	599616139536215421	-270	-438	-424	-389	-361	-296	-284	-109	237	207	-102	-338	-657	-454	291	177	-510	-746	-1203	-1249	314	1102	130	-121	230	-356	-1282	-1410	-1016	-899	-941	-834	-757	-764	-725	-662	-634	-624	-608	-589	-571	-561	-571	-575	-561	-552	-540	-508	-489	-494	-489	-494	-510	-517	-515	-515	-512	-517	-508	-480	-473	-480	-468	-459	-463	-459	-442	-463	-526	-533	-482	-461	-468
11:52:16.2340	599616140100844198	-456	-461	-496	-491	-454	-433	-426	-431	-438	-424	-438	-503	-515	-459	-452	-470	-447	-433	-449	-456	-454	-452	-438	-415	-391	-384	-401	-405	-380	-359	-319	-282	-473	-1018	-1550	-1564	-979	-219	81	-144	-293	-219	-240	-326	-338	-342	-368	-368	-361	-380	-408	-410	-405	-419	-435	-442	-461	-489	-517	-575	-655	-680	-662	-636	-615	-596	-554	-475	-412	-375	-321	-268	-254
11:52:16.8040	599616140665472975	-265	-272	-265	-263	-277	-275	-272	-340	-435	-440	-403	-429	-449	-426	-410	-412	-405	-384	-377	-396	-396	-366	-345	-349	-375	-387	-368	-356	-359	-363	-377	-394	-380	-356	-352	-356	-349	-342	-345	-345	-331	-312	-319	-338	-321	-289	-291	-300	-289	-286	-314	-363	-405	-408	-398	-419	-433	-412	-387	-368	-338	-314	-286	-240	-233	-263	-268	-263	-263	-249	-240	-235	-228
11:52:17.3740	599616141230101752	-242	-263	-247	-198	-142	-205	-573	-1151	-1534	-1312	-517	125	55	-230	-202	-142	-223	-237	-205	-233	-272	-310	-349	-352	-345	-347	-331	-310	-298	-312	-349	-377	-396	-422	-431	-433	-454	-452	-429	-426	-396	-331	-256	-200	-214	-228	-219	-263	-319	-314	-291	-300	-303	-286	-282	-251	-200	-198	-249	-328	-382	-366	-345	-352	-338	-328	-335	-317	-303	-319	-349	-375	-389
11:52:17.9140	599616141794700011	-405	-408	-373	-296	-230	-275	-335	-310	-312	-401	-463	-422	-361	-391	-447	-435	-396	-354	-328	-352	-389	-375	-349	-342	-331	-303	-268	-251	-286	-326	-300	-279	-310	-333	-310	-251	-221	-240	-249	-207	-254	-431	-447	-352	-384	-363	-349	-704	-1245	-1464	-1149	-452	95	58	-205	-244	-195	-223	-247	-254	-265	-254	-251	-282	-307	-317	-324	-335	-366	-403	-435	-461	-482
11:52:18.4840	599616142359328788	-489	-512	-547	-543	-519	-547	-641	-666	-545	-438	-403	-317	-237	-247	-240	-186	-205	-277	-282	-256	-249	-237	-233	-237	-226	-233	-221	-193	-321	-491	-459	-370	-384	-433	-438	-401	-403	-405	-335	-303	-347	-352	-333	-345	-356	-345	-307	-319	-382	-380	-331	-319	-307	-270	-265	-289	-263	-230	-258	-289	-289	-293	-305	-333	-370	-366	-345	-380	-412	-368	-340	-354	-349
11:52:19.0850	599616142923927047	-333	-303	-284	-291	-268	-230	-223	-310	-615	-1142	-1531	-1352	-620	76	179	44	394	440	-498	-892	-424	-424	-603	-401	-254	-277	30	683	841	424	186	76	-221	-442	-578	-659	-524	-347	-415	-596	-340	284	650	554	-170	-704	-130	188	-205	-160	-153	-498	-435	-142	-20	-11	-88	-167	-156	-219	-419	-477	-333	-303	-419	-429	-377	-401	-354	-242	-293	-417	-463
11:52:19.6250	599616143488555824	-452	-396	-340	-345	-359	-296	-289	-384	-405	-373	-405	-475	-531	-538	-498	-463	-435	-408	-398	-403	-398	-375	-370	-377	-347	-314	-321	-310	-300	-324	-317	-272	-251	-249	-251	-254	-258	-237	-205	-174	-51	16	-456	-1280	-1524	-813	205	489	93	-41	79	25	-27	11	-20	-114	-268	-445	-431	-319	-335	-384	-382	-380	-387	-396	-412	-424	-447	-475	-433	-373	-373
11:52:20.1940	599616144053169340	-228	76	272	422	554	382	-100	-459	-270	244	440	261	158	149	60	-62	-233	-361	-398	-279	-88	-303	-666	-573	-347	-410	-477	-340	-275	-282	-240	-410	-622	-566	-431	-359	-361	-442	-463	-408	-417	-459	-463	-461	-442	-410	-415	-422	-384	-349	-328	-354	-412	-401	-349	-314	-326	-398	-429	-394	-384	-396	-389	-391	-422	-433	-417	-380	-354	-391	-484	-501	-373
11:52:20.7640	599616144617782860	-314	-517	-927	-1380	-1571	-1200	-419	79	-125	-466	-398	-279	-349	-359	-310	-335	-359	-359	-380	-384	-394	-410	-431	-466	-484	-475	-482	-482	-433	-419	-470	-466	-482	-550	-510	-429	-405	-338	-198	-144	-158	-95	-65	-118	-149	-149	-160	-186	-188	-172	-165	-177	-195	-207	-242	-284	-282	-251	-235	-237	-240	-230	-228	-261	-293	-314	-347	-359	-331	-300	-300	-331	-349
11:52:21.3040	599616145182411637	-326	-307	-321	-356	-429	-512	-540	-482	-412	-412	-470	-454	-338	-368	-470	-417	-394	-454	-429	-347	-317	-235	-55	-39	-90	11	-27	-335	-445	-181	86	79	-249	-750	-1044	-848	-254	151	16	-67	-60	-195	-121	23	0	-55	-116	-212	-268	-223	-160	-191	-244	-261	-284	-338	-438	-491	-435	-435	-510	-489	-463	-526	-505	-454	-503	-468	-352	-394	-536	-624	-580
11:52:21.8440	599616145747009892	-384	-247	-247	-263	-293	-356	-440	-408	-305	-361	-449	-417	-359	-328	-345	-347	-317	-342	-363	-328	-326	-359	-408	-415	-352	-326	-366	-375	-324	-298	-298	-261	-254	-303	-331	-354	-415	-445	-412	-396	-384	-335	-375	-419	-321	-275	-331	-268	-212	-317	-368	-312	-261	-216	-235	-431	-620	-559	-459	-419	-282	-179	-326	-799	-1347	-1506	-1081	-352	102	-27	-289	-258	-186
11:52:22.4750	599616146311638673	-244	-261	-265	-370	-429	-366	-345	-380	-375	-373	-440	-496	-447	-382	-370	-349	-235	-32	307	449	-144	-711	-401	-88	-228	-20	349	163	-60	221	286	-86	86	489	51	-272	333	531	125	100	156	-30	-118	-58	-51	-102	-81	-39	-109	-223	-237	-212	-251	-249	-116	-67	-72	-2	-170	-415	-200	90	-326	-899	-694	-221	-158	-445	-477	-51	-132	-636	-580
11:52:23.0140	599616146876257276	-240	-333	-680	-669	-408	-149	128	116	-286	-634	-631	-536	-508	-442	-433	-300	-20	-128	-468	-624	-694	-659	-552	-517	-461	-433	-741	-1305	-1639	-1412	-720	-79	-46	-347	-331	-191	-277	-317	-263	-296	-326	-298	-289	-314	-338	-326	-317	-338	-366	-403	-440	-424	-363	-401	-536	-489	-293	-268	-352	-398	-382	-270	-289	-594	-692	-440	-361	-429	-375	-338	-363	-342	-310
11:52:23.5840	599616147440880966	-326	-335	-244	-177	-242	-114	76	-125	-275	-88	-118	-331	-307	-233	-282	-340	-366	-356	-338	-352	-366	-335	-298	-293	-319	-363	-389	-391	-398	-380	-354	-368	-375	-347	-331	-340	-347	-338	-331	-340	-349	-333	-319	-342	-347	-312	-293	-317	-345	-356	-363	-373	-370	-359	-377	-405	-396	-356	-321	-310	-312	-270	-195	-195	-249	-132	74	-18	-547	-1291	-1622	-1305	-687
11:52:24.1280	599616148005494486	-109	-18	-289	-312	-188	-251	-328	-300	-326	-412	-412	-366	-389	-442	-484	-503	-522	-545	-533	-522	-547	-545	-531	-573	-638	-657	-624	-575	-536	-498	-454	-384	-300	-258	-235	-209	-153	-58	-53	-100	-137	-298	-394	-293	-261	-310	-289	-261	-284	-300	-298	-296	-291	-293	-319	-328	-307	-305	-312	-296	-307	-356	-373	-373	-368	-349	-349	-359	-340	-319	-321	-328	-333
11:52:24.6950	599616148570123263	-324	-314	-326	-326	-307	-354	-431	-417	-375	-440	-554	-529	-296	-139	-338	-524	-370	-291	-354	-174	-27	-144	-156	-207	-438	-431	-384	-491	-356	-2	39	-368	-580	-676	-1088	-1338	-1177	-529	228	214	-151	-172	-86	-81	-200	-408	-415	-291	-291	-321	-298	-268	-289	-359	-377	-354	-412	-496	-482	-473	-575	-610	-599	-690	-720	-622	-505	-380	-249	-174	-170	-130	-13
11:52:25.2650	599616149134721522	23	-23	-32	-144	-303	-230	-151	-340	-419	-237	-135	-146	-193	-156	-6	-195	-575	-524	-333	-335	-258	-219	-401	-449	-384	-410	-384	-356	-389	-347	-324	-356	-312	-282	-349	-366	-347	-373	-347	-312	-303	-233	-237	-401	-454	-382	-389	-401	-347	-333	-342	-324	-333	-363	-361	-345	-338	-338	-340	-324	-303	-310	-307	-296	-307	-321	-307	-279	-366	-760	-1317	-1559	-1196
11:52:25.8650	599616149699345212	-408	230	270	-18	-142	-125	-135	-214	-314	-354	-361	-368	-347	-303	-270	-270	-258	-226	-244	-338	-359	-326	-496	-725	-711	-554	-445	-387	-242	-27	-32	-18	391	394	-95	-69	30	25	401	449	104	153	349	258	153	125	-41	-317	-244	-107	-592	-862	-496	-408	-540	-433	-340	-389	-412	-412	-401	-181	321	694	503	13	-41	298	163	-300	-44	442	125
11:52:26.4040	599616150263948558	-356	-272	167	177	-505	-613	-104	-333	-685	-272	88	-46	-170	-118	-81	-83	-79	-20	-55	-403	-932	-1273	-1207	-988	-920	-895	-771	-564	-398	-417	-480	-422	-328	-359	-697	-1233	-1431	-1046	-361	153	181	-53	-191	-144	0	72	-20	-170	-326	-445	-445	-454	-512	-512	-496	-522	-529	-461	-398	-391	-442	-564	-554	-384	-380	-592	-699	-559	-368	-300	-391	-433	-305
11:52:27.0050	599616150828577335	-214	-249	-249	-216	-247	-293	-317	-347	-412	-496	-477	-342	-333	-487	-463	-242	-226	-363	-261	-293	-643	-657	-456	-480	-512	-447	-415	-401	-368	-338	-319	-328	-356	-380	-403	-384	-298	-300	-373	-377	-415	-433	-338	-172	-51	-121	-221	-153	-123	-240	-293	-347	-526	-515	-333	-380	-494	-445	-401	-442	-426	-349	-263	-254	-391	-363	-90	-51	-289	-324	-76	97	13
11:52:27.5140	599616151393185764	-146	-258	-613	-1144	-1382	-1093	-440	137	265	-165	-503	-305	-30	62	4	-79	-202	-498	-687	-566	-445	-408	-368	-438	-554	-582	-552	-538	-561	-582	-585	-573	-566	-552	-517	-503	-515	-461	-370	-324	-237	-60	-62	-300	-335	-209	-188	-193	-207	-240	-244	-296	-347	-340	-359	-377	-352	-338	-338	-338	-347	-347	-321	-319	-324	-307	-303	-312	-296	-277	-296	-324	-317
11:52:28.0850	599616151957804371	-298	-314	-354	-370	-375	-410	-484	-508	-449	-415	-435	-442	-426	-419	-419	-396	-382	-401	-398	-359	-331	-335	-352	-356	-356	-366	-373	-375	-424	-480	-449	-382	-356	-354	-345	-326	-300	-268	-212	-156	-342	-862	-1214	-1009	-405	130	144	-130	-258	-275	-200	-39	-30	-153	-165	-181	-328	-361	-296	-342	-380	-324	-345	-359	-272	-314	-382	-342	-468	-613	-596	-617	-622
11:52:28.6250	599616152522402630	-515	-426	-382	-312	-256	-216	-156	-153	-214	-207	-223	-291	-233	-60	-48	-251	-312	-228	-254	-265	-233	-331	-419	-359	-284	-237	-216	-305	-391	-314	-235	-270	-298	-268	-249	-249	-240	-221	-223	-251	-235	-247	-319	-321	-244	-230	-275	-268	-216	-153	-156	-230	-237	-93	30	-76	-265	-235	-76	-174	-447	-424	-268	-314	-293	-111	-95	-135	-39	-111	-272	-277	-247
11:52:29.2240	599616153087000889	-240	-228	-221	-338	-743	-1294	-1622	-1415	-676	2	102	-16	-11	58	228	247	107	76	27	-104	-149	-153	-319	-466	-398	-359	-275	-9	-65	-356	-305	-265	-391	-359	-475	-645	-363	167	331	16	-86	163	200	-212	-216	608	587	-543	-925	-487	-422	-571	-440	-356	-426	-426	-377	-382	-396	-368	-345	-345	-349	-347	-333	-331	-338	-321	-303	-317	-293	-95	30
11:52:29.7950	599616153651619492	-195	95	923	820	242	249	303	123	23	-9	-46	-79	-165	-209	-151	-118	-121	-83	-51	-83	-151	-174	-156	-258	-613	-1039	-1025	-568	-174	-128	-540	-895	-823	-636	-366	-44	181	153	-394	-802	-990	-1564	-1321	-177	226	-32	-191	-195	-149	-167	-277	-387	-417	-326	-135	-34	-111	-116	135	298	30	-163	-44	-279	-631	-575	-559	-743	-785	-676	-401	-111	-170
11:52:30.4250	599616154216227925	-291	-200	-125	-118	-97	-156	-321	-352	-396	-715	-799	-589	-561	-603	-519	-452	-454	-431	-410	-454	-491	-459	-429	-466	-503	-484	-454	-426	-380	-342	-331	-233	-30	-153	-498	-435	-272	-391	-456	-403	-438	-487	-482	-498	-510	-473	-442	-447	-461	-461	-431	-405	-401	-373	-349	-382	-405	-380	-382	-431	-459	-487	-533	-519	-470	-454	-445	-433	-415	-370	-338	-342	-331
11:52:30.9040	599616154780826184	-296	-251	-289	-622	-1156	-1452	-1205	-475	153	76	-307	-333	-209	-240	-286	-268	-279	-373	-466	-445	-384	-403	-422	-398	-408	-447	-459	-449	-466	-510	-536	-531	-531	-538	-517	-477	-449	-410	-326	-244	-205	-200	-214	-237	-230	-223	-233	-195	-172	-223	-263	-254	-254	-291	-361	-394	-356	-342	-354	-335	-324	-328	-307	-286	-289	-284	-272	-282	-293	-279	-254	-261	-291
11:52:31.4750	599616155345429526	-293	-284	-305	-305	-305	-361	-422	-442	-429	-403	-384	-354	-324	-335	-340	-300	-289	-310	-317	-321	-321	-319	-342	-354	-314	-282	-300	-307	-265	-240	-256	-254	-223	-184	-242	-578	-1119	-1468	-1245	-505	118	100	-186	-219	-153	-216	-303	-338	-328	-307	-314	-326	-349	-396	-403	-377	-380	-405	-422	-419	-384	-380	-449	-503	-515	-543	-540	-489	-452	-380	-226	-121	-86
11:52:32.0150	599616155910022698	-23	-4	-48	-62	-125	-198	-174	-212	-291	-251	-226	-305	-333	-282	-284	-324	-314	-265	-275	-335	-328	-284	-291	-310	-296	-289	-317	-352	-354	-333	-331	-331	-303	-291	-310	-216	6	6	-282	-389	-130	135	46	-177	-132	-34	-158	-219	-146	-275	-466	-435	-326	-384	-564	-529	-324	-335	-480	-419	-184	-118	-310	-424	-352	-310	-296	-207	-251	-666	-1224	-1438	-1109
11:52:32.6440	599616156474620961	-391	151	111	-151	-263	-254	-242	-254	-265	-277	-275	-277	-289	-286	-286	-324	-356	-359	-382	-352	-184	-104	-216	-368	-445	-373	-249	-279	-352	-256	-261	-391	-142	254	-44	-547	-342	-93	-223	-181	-6	-39	-184	-216	-181	-191	-209	-205	-193	-205	-247	-270	-244	-221	-230	-235	-221	-226	-244	-230	-195	-209	-286	-340	-331	-305	-153	251	415	53	-130	-2	-16
11:52:33.1850	599616157039219220	-223	-449	-263	100	27	-111	18	142	-102	-594	-426	179	83	-405	-687	-729	-566	-540	-655	-566	-303	-90	-223	-540	-603	-561	-424	-216	-398	-522	-265	-268	-342	-128	-352	-1263	-1650	-1105	-578	-235	-30	-209	-340	-223	-228	-256	-72	32	-214	-454	-403	-354	-417	-405	-356	-387	-433	-426	-424	-447	-459	-466	-494	-510	-484	-452	-433	-398	-328	-270	-240	-212	-186
11:52:33.7240	599616157603847997	-184	-195	-193	-179	-181	-207	-216	-198	-195	-256	-328	-354	-338	-310	-359	-424	-373	-314	-368	-396	-300	-261	-300	-298	-342	-387	-284	-193	-247	-286	-265	-300	-347	-324	-279	-240	-242	-289	-258	-193	-242	-289	-263	-268	-298	-303	-305	-312	-335	-363	-354	-331	-335	-333	-349	-387	-352	-307	-319	-312	-307	-342	-356	-366	-389	-361	-307	-314	-317	-277	-272	-298	-300
11:52:34.2940	599616158168446256	-270	-221	-256	-522	-1000	-1459	-1499	-895	-135	32	-249	-326	-216	-237	-307	-291	-261	-284	-293	-279	-340	-433	-419	-349	-359	-440	-494	-463	-433	-461	-496	-491	-491	-503	-491	-461	-440	-405	-328	-244	-193	-170	-184	-219	-209	-186	-188	-179	-167	-172	-177	-188	-205	-223	-268	-286	-268	-261	-256	-251	-263	-279	-296	-310	-312	-310	-317	-314	-310	-303	-289	-286	-324
11:52:34.8650	599616158733044515	-370	-361	-326	-326	-335	-328	-359	-431	-433	-382	-405	-456	-468	-487	-491	-456	-440	-431	-398	-375	-352	-319	-328	-368	-384	-382	-382	-370	-352	-342	-321	-275	-256	-293	-338	-314	-277	-293	-242	-158	-412	-1002	-1443	-1391	-804	-76	167	-51	-237	-212	-174	-219	-265	-272	-256	-244	-261	-291	-289	-244	-221	-242	-261	-275	-347	-433	-422	-398	-456	-517	-519	-491	-468
11:52:35.4050	599616159297642774	-410	-312	-261	-268	-230	-165	-167	-200	-219	-233	-212	-184	-186	-188	-165	-179	-214	-205	-179	-191	-209	-216	-268	-340	-340	-286	-258	-284	-314	-307	-298	-265	-216	-249	-345	-384	-359	-326	-331	-319	-268	-226	-198	-212	-251	-254	-247	-235	-198	-195	-233	-251	-242	-249	-254	-235	-221	-263	-275	-114	-116	-403	-438	-272	-293	-335	-286	-191	-58	-62	-60	72	-55
11:52:36.0350	599616159862210515	-219	-67	-11	-97	-377	-1053	-1573	-1468	-851	-116	137	-95	-118	-2	-314	-587	-410	-312	-396	-368	-335	-370	-359	-324	-200	0	-60	-163	65	160	-100	-307	-398	-375	-272	-417	-557	-317	-193	-275	-86	144	135	97	41	-104	41	303	2	-433	-300	-116	-391	-487	-291	-324	-417	-380	-384	-403	-354	-321	-335	-342	-319	-298	-298	-296	-277	-275	-284	-272	-249
11:52:36.5740	599616160426829118	-235	-226	-216	-235	-261	-275	-284	-268	-289	-375	-405	-335	-342	-461	-477	-387	-303	-228	-240	-272	-310	-456	-489	-391	-377	-384	-380	-382	-303	-76	0	-296	-321	-23	-181	-424	-263	-223	-382	-333	-226	-422	-930	-1429	-1485	-837	0	130	-221	-291	-165	-156	-114	-72	-198	-310	-298	-296	-317	-284	-263	-291	-268	-149	-72	-107	-107	-111	-209	-265	-282	-396	-587
11:52:37.1480	599616160991422290	-613	-426	-391	-461	-345	-300	-370	-321	-263	-314	-368	-338	-293	-326	-363	-338	-291	-275	-289	-261	-165	-158	-219	-233	-270	-296	-298	-293	-256	-237	-223	-202	-230	-279	-352	-435	-431	-391	-403	-408	-380	-368	-363	-347	-328	-307	-286	-277	-284	-298	-296	-275	-270	-277	-270	-270	-282	-275	-256	-261	-279	-282	-263	-263	-328	-396	-373	-326	-326	-317	-293	-300	-300
11:52:37.6850	599616161556005292	-249	-207	-235	-265	-198	-130	-321	-820	-1294	-1401	-1007	-291	130	-62	-286	-193	-130	-198	-214	-200	-223	-247	-258	-270	-300	-345	-368	-426	-503	-487	-424	-431	-466	-473	-487	-501	-505	-505	-487	-435	-377	-331	-275	-205	-160	-139	-114	-104	-121	-139	-139	-130	-135	-158	-184	-188	-186	-205	-214	-207	-214	-237	-263	-279	-282	-286	-286	-277	-275	-279	-268	-275	-349
11:52:38.2540	599616162120603551	-354	-242	-263	-326	-233	-230	-394	-496	-473	-424	-438	-473	-456	-438	-445	-438	-417	-401	-363	-293	-293	-347	-356	-380	-389	-338	-380	-429	-338	-312	-373	-368	-368	-370	-342	-328	-291	-235	-228	-195	-165	-422	-965	-1338	-1233	-650	48	242	-55	-223	-151	-139	-216	-258	-258	-237	-200	-202	-270	-307	-319	-387	-433	-391	-324	-293	-333	-426	-503	-508	-489	-524	-550
11:52:38.8250	599616162685201810	-415	-242	-221	-228	-163	-102	-69	-81	-174	-207	-142	-188	-300	-298	-235	-235	-289	-289	-223	-202	-230	-237	-258	-305	-312	-286	-254	-251	-272	-268	-265	-284	-254	-240	-289	-279	-216	-177	-177	-198	-209	-205	-216	-235	-221	-214	-242	-251	-221	-216	-251	-263	-244	-244	-256	-256	-247	-237	-251	-258	-242	-240	-275	-291	-242	-235	-279	-237	-198	-237	-235	-216	-233
11:52:39.3950	599616163249794982	-221	-202	-188	-179	-408	-979	-1480	-1419	-813	-142	74	-116	-149	-76	-223	-303	-216	-221	-263	-249	-244	-256	-249	-251	-275	-284	-291	-312	-298	-251	-277	-361	-419	-498	-547	-487	-389	-289	-202	-179	-53	205	79	-321	-282	-93	-170	-214	-153	-151	-174	-184	-191	-184	-177	-191	-195	-188	-191	-200	-193	-179	-193	-235	-258	-265	-284	-284	-275	-314	-368	-352	-303
11:52:39.9650	599616163814388154	-289	-293	-296	-282	-263	-261	-263	-251	-265	-333	-389	-380	-368	-396	-408	-256	27	-20	-366	-456	-345	-310	-354	-394	-398	-410	-419	-415	-419	-401	-328	-277	-305	-354	-345	-310	-310	-314	-284	-242	-198	-214	-491	-1060	-1478	-1273	-529	137	181	-111	-146	-53	-111	-156	-125	-146	-207	-209	-188	-216	-251	-265	-324	-394	-387	-363	-380	-394	-396	-426	-445	-431	-431
11:52:40.5050	599616164378981326	-435	-435	-447	-394	-289	-221	-195	-170	-139	-146	-207	-223	-167	-153	-193	-205	-184	-177	-202	-254	-265	-205	-167	-177	-172	-191	-223	-228	-226	-235	-247	-242	-237	-247	-251	-235	-230	-247	-244	-226	-226	-235	-233	-228	-235	-244	-251	-277	-317	-338	-331	-331	-349	-356	-380	-429	-429	-410	-408	-370	-354	-380	-370	-342	-338	-347	-352	-363	-363	-335	-305	-286	-282
11:52:41.0750	599616164943564328	-296	-296	-289	-293	-268	-249	-300	-333	-435	-867	-1389	-1494	-1002	-223	188	-4	-244	-181	-135	-249	-303	-254	-237	-282	-298	-293	-328	-342	-293	-286	-342	-349	-328	-361	-422	-505	-606	-620	-580	-594	-589	-526	-461	-389	-321	-296	-279	-265	-277	-275	-256	-244	-240	-254	-282	-282	-263	-272	-282	-270	-275	-286	-286	-284	-272	-286	-335	-342	-310	-321	-338	-312	-324
11:52:41.6150	599616165508162587	-352	-317	-282	-300	-314	-256	-179	-200	-305	-286	-132	-116	-233	-247	-212	-261	-347	-396	-387	-375	-396	-398	-370	-356	-331	-298	-319	-410	-461	-422	-363	-303	-223	-165	-184	-226	-221	-251	-333	-326	-200	-172	-433	-867	-1242	-1142	-431	177	198	186	333	254	237	424	382	177	130	97	69	121	16	-221	-445	-333	32	-100	-326	-18	149	-104	-303	-326	-517
11:52:42.1850	599616166072730324	-641	-209	135	-167	-410	-263	-282	-331	-46	130	186	540	580	95	34	242	65	-83	-51	-170	-277	-256	-293	-401	-533	-620	-552	-463	-468	-477	-258	487	1009	606	286	408	251	-93	-244	-9	233	72	-4	107	53	0	37	13	-32	-32	-27	-65	-102	-90	-83	-97	-88	-83	-102	-123	-123	-118	-116	-100	-172	-244	-53	11	-186	-216	-179	-254	-415
11:52:42.7840	599616166637328587	-834	-1310	-1555	-1844	-1979	-1433	-550	-184	-415	-554	-438	-398	-415	-179	179	97	-282	-237	-6	-251	-366	-121	-326	-603	-505	-634	-834	-713	-645	-713	-673	-620	-638	-622	-545	-484	-433	-349	-268	-254	-286	-293	-195	-32	-65	-317	-384	-226	-153	-125	-111	-296	-449	-396	-333	-293	-214	-167	-195	-233	-228	-202	-200	-237	-268	-256	-244	-251	-254	-244	-263	-352	-440
11:52:43.3540	599616167201916672	-415	-345	-396	-470	-396	-242	-109	-46	-95	-216	-349	-398	-373	-482	-580	-401	-382	-610	-543	-424	-571	-373	-41	-282	-445	-9	244	-25	-121	-191	-664	-797	-489	-508	-913	-1287	-1433	-1214	-475	207	174	-93	-81	-132	-384	-438	-275	-216	-335	-384	-314	-342	-403	-377	-349	-373	-408	-408	-391	-401	-431	-461	-510	-536	-501	-477	-468	-429	-370	-296	-221	-179	-163
11:52:43.8950	599616167766494587	-158	-160	-163	-177	-170	-123	-149	-214	-219	-279	-398	-396	-312	-300	-333	-331	-296	-270	-282	-293	-279	-265	-275	-289	-289	-284	-286	-289	-296	-317	-328	-321	-312	-312	-310	-291	-279	-298	-307	-291	-277	-282	-289	-282	-284	-298	-293	-275	-312	-408	-433	-370	-342	-370	-394	-375	-331	-331	-345	-333	-321	-279	-394	-865	-1377	-1466	-988	-270	55	-142	-328	-258	-200
11:52:44.4650	599616168331092846	-268	-307	-305	-324	-321	-289	-307	-396	-447	-412	-403	-442	-470	-498	-529	-538	-547	-578	-636	-624	-519	-470	-466	-405	-333	-265	-193	-142	-123	-142	-163	-172	-188	-191	-193	-209	-212	-205	-207	-212	-212	-223	-244	-237	-209	-195	-177	-163	-184	-228	-340	-422	-275	-107	-121	-125	-128	-188	-116	-9	-109	-158	-2	-55	-258	-74	188	-55	-387	-384	-349	-354	-298
11:52:45.0050	599616168895665670	-226	-179	-135	-67	-88	-34	16	-226	-226	160	230	11	-69	-76	23	170	-95	-837	-1319	-1039	-491	58	417	261	118	228	107	-123	-307	-662	-697	-359	-368	-487	-363	-349	-435	-419	-398	-440	-447	-373	-32	370	249	-44	-13	23	-11	79	146	107	81	41	20	65	86	62	37	2	6	27	-4	-27	53	128	76	6	-11	-46	-88	-62	-23
11:52:45.5750	599616169460258846	13	93	51	-118	-135	-65	-128	-179	-163	-202	-167	-188	-466	-706	-715	-538	-328	-286	-412	-559	-606	-543	-417	-354	-435	-480	-468	-599	-718	-624	-466	-429	-494	-536	-524	-489	-445	-415	-398	-394	-405	-422	-396	-300	-219	-482	-1177	-1704	-1676	-1207	-519	-158	-356	-510	-384	-352	-410	-396	-417	-475	-452	-412	-435	-466	-459	-438	-447	-484	-489	-470	-508	-540	-517
11:52:46.1740	599616170024852018	-522	-561	-545	-494	-401	-261	-195	-67	158	118	4	55	2	-67	13	27	-48	-51	-39	-111	-151	-88	-104	-240	-282	-172	-193	-394	-401	-244	-366	-552	-459	-354	-375	-370	-335	-335	-342	-338	-340	-366	-396	-391	-368	-363	-349	-312	-296	-317	-352	-363	-340	-312	-296	-296	-282	-247	-247	-291	-310	-289	-300	-363	-366	-293	-230	-209	-221	-249	-298	-331	-303
11:52:46.7750	599616170589445190	-247	-352	-781	-1307	-1433	-927	-202	114	-104	-380	-419	-424	-429	-401	-424	-452	-429	-419	-438	-438	-433	-449	-461	-454	-449	-484	-522	-519	-519	-547	-554	-538	-533	-531	-531	-524	-466	-384	-333	-293	-268	-263	-261	-263	-277	-284	-275	-263	-265	-277	-282	-270	-272	-282	-263	-240	-230	-209	-170	-137	-137	-146	-139	-181	-254	-237	-172	-144	-139	-181	-261	-263	-212
11:52:47.2850	599616171154023105	-205	-256	-326	-345	-310	-291	-305	-321	-310	-282	-272	-277	-293	-326	-394	-456	-424	-354	-342	-359	-359	-354	-356	-356	-345	-312	-258	-354	-762	-1275	-1515	-1196	-405	149	23	-242	-219	-177	-237	-237	-212	-263	-319	-338	-366	-382	-377	-377	-391	-422	-440	-435	-445	-480	-510	-524	-545	-559	-529	-466	-429	-412	-361	-279	-214	-158	-123	-118	-123	-123	-116	-107	-139
11:52:47.8550	599616171718590846	-205	-165	-74	-121	-195	-160	-156	-249	-312	-279	-249	-268	-279	-258	-240	-249	-256	-251	-256	-307	-426	-529	-501	-440	-431	-412	-375	-368	-354	-326	-328	-335	-312	-289	-291	-291	-282	-277	-289	-298	-286	-263	-254	-237	-195	-132	-95	-130	-172	-167	-142	-151	-354	-883	-1464	-1536	-904	-88	193	0	-109	-88	-118	-144	-144	-191	-237	-233	-226	-251	-254	-247	-293
11:52:48.4240	599616172283189105	-324	-303	-300	-326	-366	-391	-396	-442	-538	-550	-498	-547	-587	-468	-342	-310	-270	-219	-158	-95	-139	-233	-277	-277	-261	-282	-298	-242	-186	-223	-275	-242	-209	-212	-214	-235	-240	-177	-125	-179	-275	-303	-221	-109	-104	-158	-158	-209	-314	-296	-244	-247	-221	-184	-170	-228	-268	-200	-188	-235	-186	-130	-160	-172	-139	-142	-184	-212	-200	-181	-186	-198	-174
11:52:48.9650	599616172847787364	-170	-216	-275	-345	-408	-405	-391	-624	-1217	-1730	-1557	-769	-79	-2	-221	-233	-165	-219	-247	-212	-207	-233	-272	-291	-298	-326	-345	-352	-401	-435	-412	-417	-454	-468	-494	-540	-559	-557	-505	-461	-494	-456	-349	-305	-272	-221	-216	-233	-202	-153	-158	-200	-207	-181	-202	-256	-249	-214	-237	-270	-242	-214	-221	-235	-240	-235	-254	-293	-326	-335	-300	-272	-279
11:52:49.5650	599616173412355105	-249	-184	-153	-156	-167	-209	-268	-275	-265	-291	-286	-254	-254	-261	-275	-331	-361	-296	-212	-226	-296	-310	-293	-286	-296	-319	-338	-338	-347	-340	-303	-282	-305	-324	-289	-251	-256	-230	-156	-212	-568	-1093	-1403	-1172	-438	181	130	-160	-139	-83	-195	-251	-258	-305	-324	-331	-368	-403	-410	-410	-433	-484	-529	-540	-543	-543	-538	-550	-571	-571	-550	-531	-515
11:52:50.1080	599616173976943190	-463	-396	-347	-293	-228	-186	-177	-174	-179	-205	-270	-326	-298	-270	-307	-331	-326	-321	-324	-319	-307	-303	-303	-291	-272	-277	-293	-284	-263	-263	-265	-251	-251	-268	-268	-247	-240	-258	-268	-254	-244	-249	-247	-237	-251	-265	-261	-261	-289	-307	-298	-282	-275	-300	-347	-370	-354	-340	-335	-321	-328	-370	-389	-361	-326	-312	-300	-298	-317	-324	-303	-268	-226
11:52:50.6750	599616174541521105	-296	-671	-1203	-1452	-1114	-338	156	-67	-424	-391	-307	-387	-410	-363	-375	-394	-366	-352	-366	-384	-391	-389	-401	-422	-422	-326	-251	-447	-652	-589	-547	-603	-547	-468	-463	-412	-317	-265	-249	-219	-177	-160	-170	-177	-167	-139	-146	-142	-132	-170	-149	-114	-130	-132	-167	-230	-216	-195	-200	-163	-153	-186	-184	-177	-165	-146	-156	-165	-149	-144	-174	-200	-205
11:52:51.2740	599616175106119364	-214	-193	-144	-149	-181	-174	-174	-233	-312	-312	-256	-258	-286	-263	-251	-279	-277	-254	-261	-289	-296	-275	-249	-226	-214	-214	-233	-263	-258	-240	-226	-163	-244	-692	-1254	-1436	-976	-216	128	-67	-261	-212	-200	-282	-284	-226	-200	-240	-279	-268	-261	-277	-291	-314	-349	-368	-349	-333	-361	-384	-408	-429	-408	-431	-480	-417	-279	-184	-165	-184	-242	-200	-27
11:52:51.7850	599616175670692188	51	86	-62	-314	125	727	531	363	505	310	118	25	-284	-384	-251	-375	-545	-557	-557	-531	-603	-671	-508	-431	-550	-512	-373	-363	-412	-435	-447	-426	-387	-359	-338	-340	-338	-312	-319	-340	-307	-230	-195	-270	-335	-303	-270	-284	-296	-305	-328	-328	-265	-65	125	-48	-347	-314	-207	-265	-153	-58	-480	-1058	-1412	-1506	-1032	-202	158	-93	-272	-186	-177
11:52:52.3550	599616176235254842	-249	-265	-256	-258	-303	-391	-433	-398	-370	-384	-417	-445	-445	-449	-470	-501	-550	-564	-517	-408	-242	-202	-279	-219	-69	30	51	69	125	34	-125	39	405	487	387	361	305	228	214	209	179	144	95	30	-4	-193	-394	-153	95	0	-46	-30	-79	-51	-156	-536	-788	-692	-552	-564	-559	-473	-440	-487	-510	-482	-494	-533	-510	-459	-459	-461	-435
11:52:52.9550	599616176799848018	-415	-426	-447	-442	-426	-454	-524	-524	-445	-417	-433	-391	-347	-370	-410	-375	-275	-326	-708	-1235	-1513	-1242	-489	107	30	-268	-261	-219	-298	-265	-235	-314	-321	-286	-300	-307	-300	-338	-361	-333	-366	-417	-396	-410	-496	-547	-526	-489	-498	-510	-456	-354	-279	-237	-179	-111	-95	-128	-142	-153	-174	-137	-121	-160	-195	-207	-184	-172	-186	-202	-216	-226	-230
11:52:53.4950	599616177364441190	-223	-228	-277	-331	-328	-319	-363	-403	-375	-345	-398	-459	-426	-377	-394	-394	-347	-331	-340	-338	-328	-319	-314	-333	-349	-354	-382	-408	-375	-340	-335	-331	-331	-338	-335	-321	-303	-272	-244	-363	-788	-1310	-1457	-979	-191	198	-6	-249	-233	-228	-317	-328	-298	-319	-347	-368	-408	-426	-410	-401	-410	-433	-452	-449	-461	-491	-498	-496	-526	-557	-559	-566	-557
11:52:54.0650	599616177929003844	-496	-415	-331	-263	-219	-179	-177	-258	-326	-279	-240	-275	-286	-279	-307	-331	-307	-282	-289	-305	-298	-272	-265	-272	-265	-254	-258	-261	-244	-228	-235	-258	-251	-226	-228	-230	-209	-212	-235	-230	-209	-198	-209	-223	-195	-163	-200	-244	-214	-188	-198	-184	-158	-156	-181	-198	-170	-111	-158	-503	-1088	-1489	-1287	-554	88	111	-179	-219	-125	-158	-202	-179	-179
11:52:54.6650	599616178493566498	-214	-228	-219	-216	-233	-279	-319	-359	-456	-536	-519	-515	-538	-470	-415	-496	-494	-310	-237	-300	-240	-11	118	-93	-305	-209	-107	-151	-207	-214	-186	-177	-174	-153	-146	-172	-209	-226	-219	-216	-214	-200	-200	-212	-202	-177	-174	-188	-191	-179	-174	-179	-170	-156	-174	-221	-244	-221	-207	-223	-226	-209	-209	-212	-198	-212	-286	-319	-247	-186	-195	-188	-184
11:52:55.1740	599616179058159670	-223	-240	-184	-132	-128	-200	-501	-1030	-1433	-1263	-522	165	170	-191	-212	-48	-102	-214	-228	-240	-263	-265	-263	-277	-293	-296	-300	-328	-382	-412	-405	-403	-424	-459	-487	-494	-475	-449	-433	-410	-345	-270	-251	-242	-195	-158	-174	-226	-279	-284	-251	-240	-258	-265	-254	-258	-265	-244	-254	-319	-359	-331	-317	-321	-291	-277	-275	-263	-256	-251	-268	-314	-333
11:52:55.7450	599616179622722324	-317	-305	-312	-307	-296	-312	-354	-370	-363	-398	-435	-396	-356	-361	-345	-345	-382	-391	-370	-352	-338	-335	-338	-324	-303	-312	-300	-214	-230	-575	-1135	-1501	-1296	-554	128	167	-123	-151	-58	-132	-244	-258	-221	-209	-233	-251	-256	-263	-298	-349	-380	-401	-429	-449	-438	-429	-461	-494	-484	-459	-449	-419	-354	-291	-254	-205	-135	-100	-111	-132	-163	-200	-230
11:52:56.3450	599616180187315500	-237	-216	-219	-251	-249	-240	-307	-375	-359	-359	-396	-373	-319	-303	-312	-310	-293	-282	-282	-270	-254	-261	-268	-247	-223	-230	-247	-242	-223	-223	-233	-251	-293	-326	-307	-272	-258	-251	-249	-254	-277	-314	-321	-296	-272	-254	-230	-216	-214	-216	-216	-216	-209	-156	-167	-480	-1037	-1387	-1137	-377	258	247	-53	-107	-58	-111	-172	-198	-223	-237	-221	-186	-195
11:52:56.8850	599616180751888328	-242	-256	-268	-314	-361	-368	-370	-415	-459	-459	-489	-575	-589	-524	-501	-482	-377	-263	-221	-205	-172	-142	-135	-158	-209	-249	-268	-300	-310	-282	-270	-303	-331	-321	-307	-300	-275	-263	-282	-303	-293	-275	-279	-282	-263	-251	-249	-219	-179	-181	-219	-230	-214	-212	-221	-223	-219	-230	-244	-214	-184	-202	-249	-284	-286	-275	-277	-282	-289	-293	-258	-205	-193
11:52:57.5150	599616181316456069	-219	-226	-207	-202	-207	-174	-100	-230	-739	-1307	-1485	-1088	-307	219	102	-158	-163	-142	-186	-200	-198	-195	-207	-247	-261	-254	-275	-300	-312	-319	-331	-356	-384	-384	-394	-429	-447	-445	-447	-433	-384	-319	-263	-216	-163	-132	-156	-167	-153	-174	-205	-177	-142	-167	-216	-228	-214	-209	-223	-226	-214	-226	-242	-228	-202	-200	-219	-230	-214	-200	-205	-200	-188
11:52:57.9950	599616181881033980	-209	-228	-205	-179	-181	-191	-191	-186	-198	-237	-249	-223	-228	-251	-240	-240	-303	-352	-321	-296	-300	-272	-237	-249	-282	-282	-254	-226	-207	-198	-198	-207	-228	-219	-165	-116	-123	-345	-876	-1382	-1373	-750	16	251	-39	-181	-69	-86	-177	-156	-137	-181	-200	-191	-207	-233	-233	-228	-244	-275	-296	-305	-326	-354	-366	-384	-433	-463	-459	-459	-429	-363	-310
11:52:58.5650	599616182445596634	-263	-237	-228	-209	-230	-310	-352	-305	-270	-289	-289	-270	-265	-268	-256	-237	-235	-251	-251	-233	-228	-242	-240	-230	-235	-233	-209	-198	-209	-221	-209	-193	-195	-198	-195	-228	-268	-251	-214	-212	-223	-228	-216	-205	-207	-202	-191	-198	-214	-202	-174	-170	-188	-202	-221	-265	-282	-242	-212	-214	-216	-198	-184	-193	-209	-214	-179	-221	-547	-1098	-1492	-1354	-617
11:52:59.1350	599616183010159288	158	247	-86	-130	-25	-109	-228	-240	-214	-233	-265	-261	-251	-286	-326	-345	-377	-403	-408	-415	-431	-461	-494	-498	-482	-482	-494	-477	-433	-384	-310	-221	-167	-153	-144	-123	-116	-132	-137	-130	-151	-174	-165	-153	-163	-179	-184	-177	-177	-184	-179	-170	-188	-202	-188	-172	-181	-212	-265	-317	-317	-284	-265	-254	-251	-251	-242	-244	-249	-219	-200	-214	-223
11:52:59.7350	599616183574752464	-212	-193	-205	-237	-235	-214	-254	-328	-331	-296	-307	-324	-310	-296	-296	-321	-356	-370	-363	-352	-335	-331	-300	-240	-361	-823	-1335	-1426	-904	-100	268	51	-163	-146	-135	-160	-174	-212	-265	-303	-307	-305	-314	-321	-333	-370	-394	-389	-412	-484	-559	-613	-620	-603	-594	-564	-529	-510	-454	-354	-279	-233	-186	-153	-149	-149	-135	-121	-130	-156	-160	-146	-153
11:53:00.2750	599616184139325292	-179	-181	-179	-195	-198	-179	-174	-207	-240	-228	-221	-289	-338	-293	-265	-293	-277	-240	-230	-240	-244	-235	-223	-219	-212	-202	-214	-230	-221	-198	-195	-212	-223	-219	-230	-251	-244	-240	-270	-296	-284	-263	-284	-338	-373	-354	-331	-317	-258	-195	-335	-792	-1303	-1454	-1000	-188	240	32	-200	-135	-86	-165	-221	-228	-247	-291	-310	-300	-312	-335	-352	-375	-384
11:53:00.8450	599616184703893033	-384	-412	-426	-424	-449	-470	-470	-508	-582	-585	-491	-417	-375	-305	-226	-177	-153	-125	-114	-139	-160	-144	-132	-149	-165	-163	-156	-165	-177	-188	-216	-242	-233	-207	-200	-219	-265	-282	-247	-235	-240	-216	-205	-223	-216	-191	-191	-200	-193	-186	-193	-193	-179	-163	-172	-193	-186	-163	-165	-179	-174	-184	-230	-247	-223	-219	-244	-263	-240	-209	-216	-219	-205
11:53:01.3850	599616185268470944	-216	-233	-188	-109	-207	-662	-1249	-1473	-1121	-410	121	46	-207	-158	-86	-172	-214	-223	-268	-279	-279	-312	-319	-310	-338	-361	-345	-352	-415	-473	-473	-468	-491	-494	-468	-461	-463	-433	-373	-333	-305	-244	-186	-172	-156	-114	-79	-90	-130	-132	-109	-118	-151	-177	-184	-186	-188	-174	-163	-174	-186	-177	-167	-177	-177	-167	-184	-195	-179	-160	-170	-191	-188
11:53:01.9550	599616185833033598	-160	-156	-172	-172	-177	-247	-324	-303	-249	-251	-272	-284	-293	-286	-268	-244	-230	-249	-265	-256	-298	-361	-331	-270	-277	-296	-284	-263	-256	-275	-251	-156	-186	-568	-1142	-1452	-1179	-438	186	174	-118	-128	-51	-144	-230	-221	-223	-258	-286	-291	-279	-286	-317	-338	-338	-347	-373	-389	-394	-424	-459	-459	-442	-433	-433	-417	-363	-303	-251	-188	-135	-123	-121
11:53:02.4950	599616186397596252	-95	-93	-139	-177	-172	-179	-247	-310	-275	-240	-270	-277	-268	-319	-349	-307	-298	-328	-312	-251	-219	-233	-251	-233	-207	-221	-242	-219	-209	-235	-237	-205	-184	-200	-240	-258	-249	-254	-263	-251	-251	-268	-258	-228	-219	-242	-263	-254	-249	-254	-230	-191	-193	-219	-228	-235	-242	-230	-172	-149	-396	-923	-1333	-1238	-594	111	233	-65	-172	-97	-121	-167	-156
