11:25:57.5080	599616078489167905	10439	14420	15024	16139	17428	17660	18015	18605	18722	18751	18986	19074	18979	19034	19249	19165	18792	18703	18808	18725	18650	18708	18626	18439	18351	18329	18312	18238	18077	17994	17994	17895	17754	17701	17641	17502	17375	17330	17303	17169	16985	16917	16903	16788	16661	16601	16510	16371	16273	16237	16177	16023	15887	15865	15753	15559	15482
11:25:57.9520	599616078926567140	15393	15218	15079	14995	14967	14909	14701	14621	15106	15633	15350	14456	13541	13229	13588	13692	13409	13313	13267	13107	13018	12939	12826	12817	12711	12433	12306	12290	12182	12069	11966	11865	11779	11659	11544	11499	11424	11276	11187	11175	11113	11003	10897	10792	10684	10545	10411	10324	10190	10010	9914	9855	9761	9672	9600	9543	9521
11:25:58.4950	599616079363966375	9512	9521	9577	9593	9433	9198	9080	8846	8431	8251	8225	8052	7899	7868	7808	7676	7587	7566	7508	7403	7333	7300	7242	7158	7091	7046	6971	6859	6768	6720	6669	6626	6585	6485	6403	6387	6339	6245	6188	6224	6516	6950	6943	6207	5366	5310	5744	5761	5543	5543	5533	5421	5378	5373	5310	5263	5255
11:25:58.8220	599616079801365606	5205	5121	5088	5078	5040	5004	4973	4922	4872	4822	4776	4745	4695	4651	4644	4639	4601	4544	4515	4486	4429	4371	4311	4234	4100	3942	3889	3889	3841	3791	3774	3750	3717	3693	3674	3640	3590	3556	3544	3525	3484	3417	3367	3333	3285	3259	3254	3228	3180	3146	3142	3137	3115	3094	3065	3014	2974
11:25:59.2470	599616080238764845	2935	2890	2852	2825	2801	2775	2698	2583	2562	2585	2550	2528	2617	2909	3326	3420	2854	1996	1715	2149	2418	2284	2231	2276	2250	2233	2248	2226	2200	2192	2173	2135	2128	2133	2104	2092	2101	2077	2034	2027	2037	2034	2025	2027	2020	2008	2010	1996	1962	1926	1874	1797	1715	1651	1615	1555	1469
11:25:59.6670	599616080676164076	1428	1409	1373	1349	1334	1325	1310	1253	1169	1155	1205	1200	1167	1181	1195	1188	1191	1183	1159	1152	1171	1198	1210	1191	1157	1126	1114	1109	1078	1049	1049	1047	1047	1073	1071	1037	1035	1047	1032	1059	1263	1708	2058	1838	1016	337	532	973	915	798	881	881	836	865	865	843	860
11:26:00.1740	599616081113578572	826	757	759	778	747	687	630	663	714	704	718	769	788	786	793	807	829	843	855	860	838	807	783	740	675	620	587	568	560	553	558	572	558	534	558	584	558	553	579	568	544	565	591	587	560	536	541	556	563	577	584	572	565	572	563	522	476
11:26:00.5940	599616081550993068	469	484	474	460	460	443	414	390	345	304	417	802	1270	1308	563	-342	-321	242	268	79	201	287	232	239	285	294	297	316	352	366	354	366	405	424	417	414	436	467	467	455	472	503	508	520	544	536	527	536	517	469	426	381	325	251	198	208	222
11:26:01.0130	599616081988392303	210	213	210	184	179	186	177	179	122	11	26	100	76	55	81	67	50	57	47	55	95	107	117	141	129	110	119	119	112	131	155	150	141	153	170	153	141	347	913	1466	1356	433	-388	-213	234	136	2	98	119	100	146	158	150	186	210	206	208
11:26:01.4070	599616082425791538	225	242	251	263	282	273	194	129	191	254	242	256	299	316	318	337	352	333	292	261	227	162	100	81	76	69	57	38	21	33	47	67	91	88	86	103	105	98	107	122	127	115	105	122	136	124	124	136	136	146	167	184	194	172	131	124	124
11:26:01.8870	599616082863221289	105	112	127	81	-16	-52	9	40	0	-23	79	503	1157	1392	699	-304	-443	62	115	-100	-28	55	11	31	76	81	83	93	81	74	91	107	105	122	150	143	115	136	167	167	184	222	239	239	249	261	261	244	234	222	155	74	38	23	-4	-16	-16
11:26:02.3640	599616083300590004	-21	-19	-14	-19	-28	-38	-35	-23	-16	-76	-174	-162	-105	-122	-129	-86	-62	-81	-86	-50	-38	-69	-71	-47	-47	-45	-31	-26	-43	-50	-21	16	23	7	11	16	-40	-105	-88	-45	-38	-59	-74	-57	-59	-110	-112	-83	-95	76	596	1040	834	-26	-709	-467	11
11:26:02.7870	599616083738004500	-59	-189	-93	-155	-282	-208	-146	-182	-172	-134	-124	-136	-124	-79	-81	-124	-95	-35	-35	-40	-16	11	26	43	74	93	83	76	91	105	81	28	-11	-62	-136	-174	-172	-179	-222	-244	-210	-189	-210	-215	-191	-194	-225	-215	-179	-177	-194	-201	-196	-206	-242	-256	-222
11:26:03.2040	599616084175388474	-213	-234	-220	-198	-206	-210	-201	-189	-184	-184	-182	-179	-230	-333	-364	-297	-261	-266	-251	-242	-251	-254	-242	-246	-270	-278	-249	-220	-230	-246	-227	-203	-215	-232	-170	131	659	961	558	-381	-862	-428	-83	-282	-347	-215	-203	-234	-215	-198	-208	-220	-213	-189	-167	-153	-139
11:26:03.6270	599616084612802970	-122	-100	-98	-105	-98	-112	-170	-220	-194	-139	-139	-139	-93	-64	-83	-95	-83	-105	-167	-213	-246	-294	-333	-328	-304	-311	-352	-364	-340	-321	-328	-318	-287	-294	-330	-345	-323	-328	-364	-354	-318	-318	-330	-318	-309	-313	-306	-282	-278	-301	-299	-266	-258	-275	-261	-234	-239
11:26:04.0480	599616085050217466	-273	-280	-242	-230	-263	-254	-198	-191	-280	-364	-335	-292	-321	-364	-364	-313	-301	-330	-313	-275	-278	-292	-273	-124	313	867	934	170	-747	-740	-186	-165	-381	-289	-203	-263	-270	-218	-198	-186	-162	-160	-158	-141	-127	-105	-83	-83	-95	-74	-28	-26	-31	4	16	-9	-2
11:26:04.5530	599616085487601440	33	35	0	-14	0	-57	-225	-383	-428	-443	-469	-467	-445	-440	-440	-426	-405	-405	-388	-337	-328	-354	-381	-388	-352	-323	-342	-337	-301	-292	-287	-263	-263	-287	-285	-244	-237	-251	-234	-242	-285	-280	-237	-222	-239	-254	-234	-210	-208	-201	-194	-196	-198	-201	-198	-179	-186
11:26:05.0040	599616085925015936	-206	-170	-107	-110	-143	-129	-127	-201	-294	-289	-242	-270	-304	-273	-256	-280	-275	-270	-254	-16	539	985	733	-198	-862	-558	-150	-299	-383	-249	-297	-405	-354	-292	-325	-357	-318	-273	-268	-263	-237	-227	-237	-242	-206	-143	-150	-213	-189	-74	-31	-62	-35	-7	-38	-43	-7
11:26:05.3670	599616086362415171	-19	-62	-47	23	117	177	206	313	431	376	222	91	-43	-189	-280	-309	-357	-455	-491	-426	-397	-412	-405	-400	-385	-357	-340	-328	-318	-313	-294	-263	-261	-270	-249	-227	-232	-227	-210	-237	-287	-280	-230	-218	-239	-232	-191	-182	-203	-196	-170	-162	-174	-191	-215	-210	-189
11:26:05.8170	599616086799814406	-186	-174	-162	-174	-201	-234	-297	-381	-424	-381	-345	-364	-361	-323	-316	-340	-263	103	673	913	376	-570	-862	-359	-155	-361	-335	-230	-270	-289	-263	-251	-230	-203	-189	-182	-170	-150	-134	-119	-95	-76	-79	-71	-33	-11	-11	-2	0	-28	-31	11	38	23	4	0	-11
11:26:06.2940	599616087237213641	-62	-129	-174	-208	-246	-270	-251	-232	-292	-395	-385	-304	-299	-313	-278	-256	-268	-254	-222	-210	-222	-227	-210	-191	-196	-198	-184	-184	-194	-186	-162	-153	-170	-177	-155	-141	-165	-198	-208	-206	-210	-198	-174	-186	-215	-218	-218	-244	-249	-222	-220	-237	-234	-220	-208	-208	-220
11:26:06.7470	599616087674612872	-251	-278	-268	-246	-234	-244	-316	-385	-349	-294	-297	-287	-258	-258	-292	-301	-278	-285	-304	-282	-254	-244	-242	-242	-230	-210	-210	-239	-194	139	733	1047	563	-385	-716	-261	-76	-289	-273	-158	-184	-201	-165	-165	-184	-170	-141	-131	-129	-117	-98	-74	-55	-57	-55	-28	-9
11:26:07.1370	599616088112027368	-7	9	35	33	14	26	59	74	52	7	-9	-7	-52	-112	-148	-232	-361	-400	-357	-369	-390	-354	-330	-349	-347	-311	-297	-306	-299	-294	-301	-309	-325	-335	-318	-309	-313	-297	-285	-299	-289	-261	-258	-268	-270	-263	-254	-258	-258	-237	-232	-258	-263	-232	-225	-225	-213
11:26:07.5540	599616088549441864	-215	-218	-208	-196	-186	-196	-220	-218	-194	-227	-318	-335	-280	-275	-282	-242	-222	-270	-289	-225	-177	-201	-206	-194	-215	-237	-242	-237	-220	-227	-237	-206	-182	-198	-213	-179	2	448	857	690	-103	-774	-587	-115	-146	-278	-184	-148	-203	-194	-150	-139	-134	-119	-112	-115	-117
11:26:08.0070	599616088986841099	-105	-107	-119	-172	-244	-213	-139	-153	-172	-129	-98	-91	-79	-52	-31	-40	-45	-35	-59	-131	-210	-270	-309	-354	-378	-383	-445	-500	-457	-407	-414	-409	-383	-390	-414	-388	-347	-333	-342	-364	-349	-309	-297	-301	-304	-304	-297	-285	-275	-266	-270	-278	-266	-251	-251	-244	-232
11:26:08.3970	599616089424240334	-237	-246	-237	-218	-218	-244	-256	-222	-222	-325	-393	-325	-301	-349	-340	-306	-309	-316	-304	-278	-263	-268	-256	-246	-268	-136	347	881	848	64	-771	-726	-206	-182	-354	-301	-292	-321	-261	-230	-254	-251	-222	-208	-201	-184	-158	-143	-146	-129	-93	-86	-86	-64	-43	-31	-9
11:26:08.9350	599616089861639569	19	45	16	-81	-117	-52	-55	-136	-189	-230	-299	-347	-361	-373	-402	-431	-450	-443	-421	-409	-395	-381	-378	-369	-342	-325	-337	-345	-323	-304	-309	-306	-292	-294	-301	-287	-261	-251	-268	-278	-254	-234	-242	-249	-278	-323	-318	-287	-266	-246	-244	-244	-225	-232	-261	-261	-242
11:26:09.2970	599616090299038804	-254	-261	-230	-210	-220	-222	-227	-249	-174	242	884	1044	275	-714	-776	-256	-270	-505	-383	-287	-357	-333	-278	-306	-311	-263	-234	-230	-218	-198	-179	-162	-146	-124	-100	-93	-86	-50	-19	-4	14	31	40	55	59	55	45	9	-52	-107	-158	-218	-285	-337	-349	-357	-357
11:26:09.7470	599616090736438039	-313	-285	-299	-299	-280	-301	-388	-450	-407	-369	-388	-390	-371	-371	-388	-383	-354	-345	-349	-340	-328	-330	-328	-309	-297	-292	-285	-282	-275	-270	-270	-242	-208	-210	-218	-201	-206	-239	-263	-254	-232	-230	-227	-206	-198	-208	-208	-208	-146	196	759	956	352	-558	-726	-213	-81
11:26:10.1970	599616091173837274	-297	-254	-150	-179	-198	-213	-227	-227	-297	-335	-258	-222	-249	-215	-160	-150	-148	-117	-95	-79	-57	-31	-4	9	16	45	71	69	64	62	31	-26	-81	-127	-177	-232	-266	-282	-287	-285	-268	-254	-254	-256	-237	-213	-208	-215	-210	-196	-191	-196	-191	-184	-196	-196	-177
11:26:10.6170	599616091611236509	-167	-172	-186	-189	-174	-179	-191	-179	-174	-251	-347	-333	-301	-342	-345	-282	-261	-294	-299	-278	-297	-330	-325	-309	-313	-325	-345	-349	-330	-323	-337	-330	-150	328	790	620	-239	-896	-630	-184	-273	-388	-270	-249	-313	-297	-242	-225	-227	-215	-201	-191	-179	-158	-134	-117	-115
11:26:11.0370	599616092048635740	-110	-79	-52	-45	-38	-11	-7	-74	-131	-76	-23	-50	-59	-40	-69	-139	-194	-234	-280	-323	-345	-335	-342	-388	-383	-330	-318	-318	-289	-278	-287	-282	-266	-254	-254	-256	-249	-237	-234	-227	-213	-215	-234	-232	-215	-213	-213	-208	-206	-203	-208	-218	-208	-191	-203	-203	-174
11:26:11.4870	599616092486050236	-184	-237	-256	-232	-256	-352	-395	-335	-309	-328	-294	-268	-270	-107	376	838	699	-110	-831	-690	-213	-215	-330	-239	-232	-292	-273	-268	-282	-251	-232	-270	-330	-342	-313	-289	-273	-246	-225	-225	-210	-172	-143	-127	-115	-88	-57	-47	-47	-31	-26	-59	-107	-148	-203	-268	-318
11:26:11.9070	599616092923434210	-340	-359	-395	-397	-357	-352	-426	-500	-474	-409	-400	-400	-371	-352	-347	-333	-316	-313	-323	-316	-285	-273	-285	-280	-258	-249	-261	-266	-246	-227	-220	-206	-186	-186	-208	-230	-242	-249	-249	-244	-266	-306	-309	-275	-251	-249	-270	-251	4	568	987	690	-254	-877	-536	-119	-254
11:26:12.3570	599616093360848706	-342	-227	-225	-270	-304	-369	-345	-270	-278	-299	-261	-220	-222	-227	-218	-201	-186	-167	-134	-117	-127	-124	-95	-83	-83	-59	-45	-62	-79	-91	-134	-208	-289	-340	-354	-369	-385	-373	-361	-369	-369	-364	-357	-337	-328	-323	-304	-297	-306	-333	-352	-340	-321	-309	-294	-292	-297
11:26:12.7770	599616093798263202	-289	-270	-261	-254	-237	-273	-395	-433	-325	-270	-297	-282	-258	-273	-289	-289	-304	-316	-304	-278	-263	-261	-254	-239	-249	-280	-148	376	1016	1044	189	-697	-627	-158	-210	-369	-261	-220	-263	-218	-177	-201	-201	-162	-148	-148	-134	-124	-148	-158	-119	-83	-76	-79	-69	-47	-23
11:26:13.2850	599616094235662437	-7	-9	-45	-100	-177	-203	-172	-194	-261	-313	-354	-402	-436	-436	-436	-445	-428	-397	-378	-371	-364	-349	-335	-337	-337	-313	-306	-323	-309	-275	-275	-285	-278	-266	-263	-266	-254	-227	-234	-254	-234	-206	-203	-208	-206	-203	-208	-198	-167	-134	-129	-141	-136	-129	-150	-191	-213
11:26:13.6470	599616094673061668	-203	-194	-194	-182	-172	-174	-179	-170	-198	-239	-28	558	975	553	-464	-913	-462	-198	-395	-390	-263	-301	-306	-239	-234	-246	-210	-179	-174	-177	-184	-174	-150	-134	-115	-91	-93	-98	-69	-31	-19	-11	9	21	14	9	7	-21	-69	-119	-170	-227	-282	-321	-337	-333	-330
11:26:14.1830	599616095110491425	-328	-311	-323	-417	-481	-431	-402	-414	-385	-357	-347	-337	-316	-292	-292	-304	-285	-254	-246	-273	-306	-297	-268	-266	-256	-227	-227	-242	-225	-206	-206	-198	-186	-186	-194	-186	-172	-182	-215	-220	-177	-143	-134	-122	-117	-148	-186	-191	-174	-179	-198	-196	-167	-155	-165	-153	-136
11:26:14.5470	599616095547890660	-167	-210	-71	405	949	937	160	-668	-666	-242	-227	-349	-285	-254	-268	-222	-203	-222	-196	-170	-189	-191	-150	-134	-153	-139	-100	-100	-124	-165	-174	-117	-91	-91	-47	-11	-16	0	35	31	2	-23	-74	-153	-225	-278	-311	-337	-347	-323	-297	-304	-311	-289	-266	-266	-266
11:26:15.0230	599616095985289895	-237	-220	-237	-242	-213	-215	-301	-385	-349	-301	-316	-304	-268	-258	-273	-278	-254	-234	-242	-254	-263	-261	-246	-242	-225	-213	-230	-230	-203	-201	-206	-184	-174	-179	-162	-131	-127	-160	-201	-218	-218	-220	-215	-201	-194	-203	-196	-177	-167	-167	-184	-225	-162	246	857	1032	390
11:26:15.5640	599616096422689126	-601	-865	-345	-141	-333	-313	-227	-294	-395	-419	-364	-352	-383	-354	-304	-294	-294	-273	-251	-234	-210	-186	-162	-146	-131	-100	-64	-64	-62	-23	2	0	2	11	-11	-86	-165	-213	-251	-294	-316	-316	-316	-318	-304	-280	-287	-323	-318	-273	-256	-263	-251	-232	-234	-239	-227
11:26:15.8930	599616096860149400	-210	-203	-225	-239	-220	-249	-333	-330	-278	-287	-297	-258	-239	-256	-268	-263	-254	-263	-275	-263	-246	-244	-237	-218	-225	-268	-280	-227	-194	-206	-191	-167	-177	-206	-227	-242	-249	-261	-261	-246	-244	-239	-234	-273	-330	-239	242	925	1076	294	-726	-831	-297	-244	-443	-371	-347
11:26:16.3170	599616097297518118	-412	-354	-294	-311	-297	-256	-258	-321	-390	-376	-333	-328	-313	-263	-225	-208	-177	-136	-117	-91	-47	-9	14	19	19	33	31	-14	-69	-139	-220	-273	-280	-285	-299	-306	-294	-275	-268	-263	-249	-258	-280	-266	-232	-222	-218	-208	-203	-194	-186	-182	-172	-170	-186	-191	-170
11:26:16.7370	599616097734932610	-160	-170	-174	-170	-167	-179	-198	-225	-278	-366	-412	-337	-263	-268	-275	-270	-278	-294	-297	-289	-297	-316	-318	-309	-321	-328	-309	-301	-330	-340	-122	484	1090	949	-67	-879	-623	-174	-309	-424	-287	-270	-301	-244	-230	-249	-210	-172	-189	-203	-172	-150	-155	-134	-100	-86	-81
11:26:17.2430	599616098172347106	-62	-28	-4	7	33	64	35	-50	-62	0	-4	-64	-100	-143	-218	-294	-352	-366	-364	-357	-330	-304	-299	-313	-328	-309	-280	-266	-249	-234	-244	-242	-218	-215	-225	-210	-198	-213	-220	-201	-182	-189	-198	-194	-186	-177	-177	-184	-177	-167	-177	-177	-158	-179	-203	-182	-186
11:26:17.6930	599616098609746341	-213	-198	-182	-210	-263	-287	-251	-254	-376	-484	-428	-371	-405	-393	-373	-421	-306	215	889	980	100	-874	-793	-237	-289	-508	-412	-347	-378	-335	-301	-337	-345	-294	-266	-261	-234	-208	-203	-189	-167	-146	-122	-105	-88	-69	-40	-23	-2	33	50	50	45	43	40	2	-76
11:26:18.0540	599616099047145576	-131	-184	-249	-280	-268	-278	-301	-292	-270	-282	-333	-383	-359	-333	-342	-321	-275	-282	-328	-316	-261	-258	-282	-266	-244	-256	-254	-213	-186	-213	-239	-210	-179	-196	-246	-263	-225	-227	-261	-237	-196	-220	-246	-232	-213	-186	-160	-170	-186	-189	-196	-194	-196	-232	-270	-285	-278
11:26:18.5070	599616099484544811	-280	-282	-263	-306	-414	-452	-306	129	742	944	239	-769	-879	-345	-309	-510	-402	-311	-354	-333	-294	-292	-275	-249	-234	-210	-186	-174	-170	-153	-127	-115	-115	-91	-59	-50	-31	0	9	16	43	52	38	2	-33	-71	-143	-213	-242	-261	-294	-318	-299	-273	-268	-266	-246
11:26:18.9250	599616099921974564	-244	-251	-242	-220	-220	-242	-254	-237	-225	-287	-376	-357	-299	-306	-301	-268	-254	-263	-268	-256	-263	-294	-278	-242	-239	-246	-232	-215	-210	-230	-244	-210	-162	-155	-150	-131	-148	-174	-172	-170	-196	-225	-220	-198	-208	-220	-196	-198	-270	-273	38	663	1066	579	-539	-970	-440
11:26:19.4340	599616100359373799	-208	-438	-431	-369	-445	-407	-337	-400	-433	-364	-325	-333	-304	-263	-258	-261	-230	-184	-165	-162	-155	-143	-112	-74	-43	-11	4	-21	-43	-9	0	-45	-95	-139	-194	-237	-258	-268	-278	-285	-266	-237	-237	-234	-220	-218	-220	-208	-186	-186	-213	-218	-189	-172	-191	-201	-186
11:26:20.0030	599616100796773030	-165	-150	-179	-230	-234	-222	-234	-213	-186	-251	-309	-230	-177	-292	-349	-266	-261	-330	-313	-246	-220	-210	-186	-174	-203	-222	-213	-194	-177	-196	-227	-194	-153	-172	-206	-237	-254	-88	390	884	747	-162	-920	-687	-177	-198	-316	-232	-220	-258	-198	-162	-189	-167	-122	-122	-124
11:26:20.2460	599616101234202787	-100	-76	-62	-57	-57	-38	-43	-62	-31	-19	-59	-76	-71	-55	-47	-67	-45	-4	-64	-167	-186	-194	-273	-330	-337	-352	-345	-316	-337	-333	-275	-258	-266	-266	-287	-294	-261	-251	-278	-280	-244	-232	-258	-246	-222	-246	-254	-222	-182	-167	-218	-263	-186	-110	-179	-234	-143
11:26:20.6670	599616101671602022	-93	-146	-119	-64	-124	-196	-194	-213	-311	-349	-273	-246	-280	-256	-234	-246	-215	-115	167	690	987	546	-472	-1100	-790	-371	-354	-352	-297	-301	-335	-366	-345	-285	-261	-254	-232	-203	-170	-136	-103	-83	-107	-129	-98	-19	28	-11	-79	-52	47	76	31	45	79	35	-19
11:26:21.1750	599616102109001257	-47	-86	-155	-234	-282	-335	-407	-412	-373	-352	-318	-304	-309	-282	-297	-311	-234	-191	-230	-244	-206	-170	-179	-194	-196	-222	-232	-208	-177	-184	-230	-208	-158	-150	-131	-93	-81	-91	-124	-182	-203	-184	-186	-160	-146	-194	-186	-139	-150	-170	-170	-165	69	637	1044	714	-222
11:26:21.5670	599616102546431010	-843	-556	-129	-162	-234	-189	-191	-227	-263	-266	-249	-275	-280	-246	-239	-249	-254	-227	-203	-194	-165	-112	-79	-74	-69	-26	16	14	19	59	57	2	-16	7	-26	-127	-208	-273	-337	-349	-325	-333	-359	-349	-325	-316	-304	-285	-263	-225	-206	-220	-215	-194	-213	-230	-206
11:26:22.0140	599616102983830245	-201	-225	-213	-177	-184	-198	-189	-194	-206	-258	-316	-261	-203	-249	-292	-299	-316	-325	-294	-258	-256	-232	-167	-134	-153	-196	-251	-155	316	922	1068	419	-515	-656	-122	-16	-244	-203	-136	-225	-237	-179	-167	-162	-155	-153	-153	-172	-162	-124	-112	-117	-107	-88	-64	-35	-23
11:26:22.4070	599616103421229476	-31	-26	4	19	4	2	-11	-88	-136	-136	-203	-323	-373	-395	-445	-460	-428	-414	-417	-395	-354	-325	-321	-309	-289	-294	-316	-289	-230	-234	-278	-261	-208	-208	-239	-237	-213	-189	-177	-165	-139	-136	-172	-186	-184	-206	-227	-213	-191	-191	-194	-182	-160	-162	-196	-254	-220
11:26:22.9740	599616103858659233	107	687	985	512	-467	-939	-522	-196	-345	-383	-268	-258	-282	-249	-210	-206	-208	-184	-146	-122	-129	-143	-136	-110	-88	-74	-55	-28	-14	0	33	67	71	76	91	93	83	64	4	-88	-160	-194	-222	-266	-299	-306	-311	-330	-333	-306	-292	-306	-318	-328	-321	-297	-294
11:26:23.3330	599616104296058468	-292	-270	-275	-285	-258	-261	-316	-323	-280	-261	-251	-234	-220	-208	-244	-301	-301	-297	-349	-357	-304	-316	-388	-383	-330	-321	-335	-349	-321	-28	551	891	486	-405	-814	-438	-189	-342	-349	-237	-244	-266	-232	-196	-177	-174	-167	-141	-127	-124	-107	-81	-71	-67	-52	-23	0
11:26:23.7880	599616104733472960	4	21	40	14	-43	-43	11	11	-64	-105	-95	-141	-232	-285	-347	-421	-417	-376	-366	-364	-357	-347	-328	-309	-306	-311	-321	-328	-313	-289	-282	-299	-318	-318	-325	-352	-354	-325	-309	-299	-275	-256	-256	-268	-287	-306	-316	-316	-301	-285	-285	-292	-278	-254	-244	-251	-285
11:26:24.1470	599616105170887456	-270	16	606	999	647	-301	-829	-445	-110	-275	-335	-232	-242	-316	-371	-354	-289	-275	-289	-263	-218	-210	-230	-237	-222	-191	-165	-141	-110	-88	-71	-35	-7	21	67	91	69	55	52	11	-71	-160	-218	-249	-275	-299	-285	-254	-268	-282	-242	-201	-206	-220	-210	-198	-215
11:26:24.6540	599616105608286691	-230	-198	-191	-289	-381	-342	-306	-325	-297	-273	-278	-251	-227	-237	-242	-261	-297	-333	-378	-390	-349	-316	-318	-330	-318	-278	-275	-328	-299	-11	558	994	778	-122	-905	-733	-239	-256	-361	-280	-242	-244	-213	-194	-189	-172	-148	-119	-107	-119	-131	-122	-81	-28	-11	-23	-7
11:26:25.0440	599616106045685922	21	50	93	110	115	143	146	127	119	40	-52	-64	-131	-239	-251	-263	-316	-294	-275	-297	-242	-174	-198	-239	-254	-266	-251	-213	-189	-194	-206	-189	-148	-131	-162	-196	-186	-153	-160	-179	-167	-203	-273	-242	-155	-191	-289	-285	-270	-311	-337	-342	-309	-251	-242	-294	-251
11:26:25.6170	599616106483115679	186	910	1171	464	-711	-1126	-591	-352	-534	-436	-352	-426	-316	-196	-282	-335	-258	-215	-244	-239	-198	-194	-186	-150	-127	-91	-52	-43	-33	-7	33	62	43	35	76	81	9	-50	-28	-59	-237	-342	-266	-251	-385	-424	-313	-258	-301	-345	-349	-323	-292	-282	-273	-246	-251
11:26:25.9170	599616106920514914	-285	-273	-249	-244	-215	-191	-215	-256	-285	-285	-261	-270	-294	-244	-162	-191	-263	-218	-165	-266	-330	-246	-210	-328	-474	-488	-385	-354	-421	-443	-383	-373	-268	328	1114	1215	330	-774	-927	-395	-323	-484	-385	-352	-369	-249	-201	-251	-239	-210	-184	-170	-184	-167	-127	-119	-127
11:26:26.3930	599616107357944667	-115	-103	-86	-62	-35	-52	-129	-98	43	57	57	215	373	409	352	282	268	222	122	160	244	172	162	354	539	608	515	115	-357	-436	-325	-81	644	1423	2128	3388	4680	5049	4980	5112	5310	5533	5720	5675	5548	5447	5251	4992	4795	4606	4361	4153	3973	3755	3551	3367	3161
11:26:26.8740	599616107795343902	2979	2847	2708	2550	2406	2288	2178	2041	1855	1687	1620	1550	1433	1380	1368	1267	1195	1217	1198	1124	1049	989	932	874	829	800	771	752	728	704	699	651	587	558	534	766	1440	1991	1723	654	-177	74	500	342	246	400	407	321	325	378	402	395	385	376	349	345	383
11:26:27.2650	599616108232758394	390	371	395	407	376	345	318	342	397	412	426	472	510	505	508	505	445	371	292	206	153	103	40	19	23	-2	-50	-69	-59	-55	-47	-28	-31	-59	-64	-21	-4	-45	-55	-33	-38	-40	-26	-33	-67	-88	-67	-52	-64	-62	-57	-79	-100	-79	-40	-57	-105
11:26:27.6860	599616108670172890	-110	-83	-86	-124	-143	-124	-139	-227	-261	-206	-227	-321	-335	-285	-280	-292	-275	-285	-306	-287	-254	-256	-273	-285	-292	-287	-299	-345	-354	-306	-268	-270	-289	-301	-316	-357	-385	-376	-364	-357	-340	-345	-359	-342	-321	-342	-407	-428	-136	541	1073	874	-141	-1071	-874	-361	-498
11:26:28.1060	599616109107572125	-635	-486	-472	-515	-460	-440	-440	-395	-431	-551	-556	-486	-493	-496	-460	-436	-407	-371	-337	-301	-282	-278	-246	-191	-150	-127	-107	-93	-95	-134	-174	-220	-299	-393	-474	-541	-584	-579	-565	-565	-546	-512	-498	-522	-551	-522	-455	-438	-452	-443	-448	-464	-452	-440	-436	-414	-414
11:26:28.7030	599616109545001878	-417	-388	-393	-428	-388	-352	-472	-572	-488	-431	-464	-448	-402	-417	-431	-395	-376	-412	-455	-443	-393	-381	-395	-400	-431	-462	-467	-469	-433	-414	-452	-457	-443	-455	-481	-536	-589	-577	-582	-591	-520	-486	-560	-632	-683	-678	-395	227	759	627	-347	-1361	-1263	-651	-707	-932	-723
11:26:29.0030	599616109982401113	-560	-668	-718	-709	-742	-726	-673	-666	-702	-716	-635	-539	-577	-661	-635	-601	-699	-730	-611	-572	-596	-536	-484	-469	-431	-409	-448	-503	-544	-601	-697	-793	-841	-862	-869	-872	-865	-850	-848	-836	-807	-788	-769	-740	-747	-769	-745	-721	-769	-814	-778	-757	-824	-889	-881	-857	-853
11:26:29.4860	599616110419800344	-872	-874	-836	-819	-850	-917	-977	-977	-934	-886	-846	-836	-829	-790	-771	-766	-740	-738	-740	-685	-647	-673	-697	-675	-649	-642	-632	-591	-575	-601	-591	-560	-596	-632	-587	-546	-546	-532	-498	-464	-469	-515	-532	-498	-481	-500	-505	-491	-488	-488	-469	-433	-450	-450	-122	623	1133
11:26:29.8770	599616110857214840	764	-354	-1193	-891	-397	-577	-699	-544	-551	-577	-486	-481	-512	-469	-472	-529	-522	-474	-467	-445	-402	-402	-397	-364	-342	-335	-313	-275	-242	-246	-249	-206	-143	-83	-95	-170	-198	-242	-371	-476	-500	-488	-488	-503	-512	-503	-488	-462	-438	-443	-445	-421	-405	-414	-405	-385	-388
11:26:30.2670	599616111294629336	-352	-333	-402	-407	-311	-306	-385	-388	-325	-393	-534	-551	-474	-460	-572	-606	-464	-383	-419	-433	-419	-405	-407	-443	-452	-409	-361	-357	-397	-414	-383	-412	-488	-412	-254	-335	-481	-373	-304	-431	-402	-261	-273	-333	-316	-282	-270	-297	-294	-227	-196	-198	-218	-256	-227	-182	-208
11:26:30.7730	599616111732043828	-208	-148	-139	-242	-323	-289	-285	-112	570	1354	1411	421	-733	-742	-148	-196	-407	-244	-182	-278	-239	-174	-225	-256	-210	-182	-213	-196	-117	-117	-191	-186	-115	-117	-153	-115	-67	-38	-14	-7	9	52	79	86	93	69	19	-21	-79	-186	-278	-301	-309	-337	-373	-381	-376
11:26:31.1670	599616112169458324	-385	-366	-321	-311	-325	-328	-313	-278	-306	-426	-457	-390	-378	-383	-333	-299	-301	-306	-318	-313	-280	-256	-256	-273	-285	-270	-242	-234	-242	-244	-232	-232	-273	-278	-218	-201	-256	-261	-213	-215	-222	-184	-165	-184	-179	-174	-191	-179	-143	-105	-107	-136	-124	-124	-174	-182	-160
11:26:31.6170	599616112606857559	-165	-167	-155	-174	-186	-182	-268	-376	-218	337	1004	1193	508	-644	-1004	-409	-150	-369	-354	-237	-244	-249	-215	-191	-167	-155	-170	-162	-141	-148	-153	-119	-95	-100	-79	-52	-67	-71	-26	2	19	28	16	47	93	38	-26	-16	-52	-150	-234	-323	-393	-383	-354	-361	-376
11:26:32.0370	599616113044256790	-390	-395	-357	-323	-321	-297	-268	-297	-361	-393	-361	-366	-397	-345	-299	-318	-337	-337	-328	-313	-282	-239	-232	-289	-333	-278	-218	-244	-280	-242	-210	-222	-208	-194	-215	-225	-215	-220	-220	-218	-191	-153	-184	-232	-234	-225	-194	-170	-182	-203	-218	-206	-194	-208	-237	-254	-232
11:26:32.4870	599616113481686547	-213	-234	-246	-222	-208	-256	-359	-352	19	747	1298	1018	-115	-944	-601	-172	-378	-428	-261	-297	-323	-249	-254	-249	-194	-189	-184	-158	-158	-153	-129	-119	-115	-95	-74	-59	-45	-31	-9	21	52	62	59	86	86	45	45	28	-59	-172	-275	-325	-333	-361	-378	-352	-345
11:26:32.9640	599616113919085778	-357	-369	-378	-373	-357	-340	-330	-378	-440	-395	-335	-359	-373	-361	-376	-371	-323	-297	-299	-313	-316	-289	-273	-282	-273	-278	-316	-289	-218	-239	-294	-270	-218	-213	-227	-218	-206	-198	-186	-182	-170	-155	-165	-179	-155	-134	-136	-136	-124	-83	-88	-143	-158	-158	-186	-182	-139
11:26:33.4160	599616114356500274	-143	-174	-182	-170	-174	-280	-311	124	920	1322	805	-349	-999	-455	7	-366	-625	-515	-452	-457	-431	-405	-388	-342	-299	-280	-289	-261	-162	-158	-182	-93	-59	-127	-86	45	117	139	110	38	4	38	81	115	93	14	-4	-28	-141	-203	-246	-364	-438	-426	-388	-340	-323
11:26:34.1660	599616114793914770	-340	-328	-285	-254	-263	-289	-287	-261	-282	-316	-273	-232	-275	-289	-256	-318	-385	-400	-462	-452	-345	-313	-316	-297	-263	-227	-227	-225	-234	-254	-263	-292	-266	-230	-292	-318	-270	-249	-275	-304	-297	-316	-364	-354	-330	-282	-194	-182	-218	-220	-268	-313	-273	-285	-337	-301	-306
11:26:34.2620	599616115231314005	-359	-285	-227	-285	-249	-242	-304	74	877	1289	783	-395	-1047	-546	-244	-594	-539	-280	-397	-438	-294	-311	-325	-306	-364	-309	-234	-311	-318	-232	-208	-225	-230	-196	-160	-172	-191	-119	-2	0	-43	-47	-55	-35	-50	-143	-227	-297	-352	-359	-400	-484	-500	-467	-491	-570	-575
11:26:34.6470	599616115668713236	-510	-510	-527	-467	-412	-455	-508	-450	-349	-371	-508	-520	-383	-369	-436	-381	-301	-340	-383	-309	-227	-230	-251	-256	-234	-213	-230	-225	-172	-170	-196	-162	-124	-122	-88	-62	-83	-76	-26	28	59	35	21	52	64	28	14	43	57	35	38	57	52	40	21	14	38
11:26:35.4530	599616116106142993	31	28	71	52	-38	-64	-33	-38	-59	-57	-40	-31	-35	-35	-28	-31	-35	-38	-59	-67	170	754	1181	891	-7	-594	-316	-4	-139	-201	-129	-136	-136	-86	-55	-57	-47	-33	-47	-43	-19	-9	-4	-2	-19	-50	-55	-23	7	23	35	47	79	105	86	79	119
11:26:35.6060	599616116543542228	146	134	119	91	-16	-115	-141	-165	-177	-170	-194	-220	-251	-323	-378	-349	-313	-289	-256	-225	-184	-150	-107	-57	-74	-98	-67	-31	-23	-52	-71	-69	-74	-91	-122	-127	-119	-117	-91	-100	-155	-158	-136	-131	-110	-110	-95	-74	-127	-141	-83	-57	-76	-103	-139	-160	-167
11:26:36.0940	599616116980941463	-177	-170	-162	-189	-213	-182	-162	-184	-179	-150	-67	237	757	1100	695	-405	-1013	-582	-215	-311	-306	-222	-210	-210	-186	-158	-155	-153	-143	-136	-122	-86	-9	-19	-146	-139	19	43	-7	33	64	47	71	105	93	117	162	170	153	91	2	-45	-81	-174	-275	-282	-258
11:26:36.4200	599616117418340694	-330	-381	-289	-234	-304	-390	-388	-330	-364	-481	-472	-385	-452	-467	-340	-342	-417	-371	-328	-361	-376	-361	-349	-325	-309	-301	-282	-278	-273	-239	-206	-201	-225	-215	-179	-222	-287	-287	-299	-297	-237	-222	-218	-167	-186	-249	-222	-194	-246	-167	244	742	798	148	-757	-992	-589
11:26:36.8970	599616117855770451	-452	-570	-505	-433	-450	-433	-472	-553	-522	-462	-469	-443	-376	-337	-349	-381	-349	-285	-280	-285	-244	-210	-201	-167	-115	-86	-88	-98	-88	-67	-86	-131	-172	-244	-306	-316	-333	-371	-385	-378	-366	-354	-342	-325	-304	-313	-318	-285	-266	-278	-273	-270	-297	-316	-311	-304	-318
11:26:37.3420	599616118293169686	-337	-364	-397	-395	-378	-388	-378	-373	-400	-390	-342	-364	-457	-481	-409	-395	-436	-436	-417	-407	-402	-381	-373	-443	-496	-428	-371	-409	-443	-313	119	678	814	198	-673	-853	-455	-359	-481	-417	-357	-383	-359	-328	-335	-318	-306	-330	-306	-249	-242	-258	-242	-222	-222	-218	-208
11:26:37.9140	599616118730568921	-194	-158	-124	-107	-47	-19	-105	-158	-110	-107	-139	-148	-203	-347	-472	-445	-381	-428	-462	-448	-510	-508	-359	-337	-426	-354	-273	-352	-299	-105	-52	-153	-342	-395	-158	-35	-146	-172	-162	-289	-419	-460	-460	-443	-445	-469	-472	-484	-524	-548	-553	-572	-611	-627	-596	-551	-536
11:26:38.1560	599616119167968156	-534	-522	-539	-551	-340	256	838	745	-177	-1107	-1042	-587	-668	-762	-601	-601	-671	-594	-539	-558	-522	-457	-452	-476	-464	-417	-405	-467	-606	-687	-613	-548	-551	-505	-450	-445	-414	-337	-239	-14	182	119	-11	-55	-59	-93	-139	-115	-67	-74	23	369	781	994	1023	1076	1164
11:26:38.6330	599616119605367391	1131	1037	997	927	812	695	551	438	366	254	105	0	-141	-405	-673	-869	-1047	-1174	-1229	-1246	-1272	-1296	-1284	-1253	-1207	-1155	-1114	-1092	-1059	-1023	-989	-958	-970	-920	-481	278	663	158	-946	-1517	-1059	-697	-862	-857	-723	-742	-726	-647	-647	-685	-649	-587	-596	-613	-594	-613	-647
11:26:39.1120	599616120042766626	-623	-579	-551	-512	-455	-388	-316	-230	-95	33	38	-38	-62	-71	-91	-98	-174	-335	-488	-570	-608	-637	-654	-668	-666	-627	-599	-601	-584	-560	-568	-553	-500	-481	-498	-505	-503	-505	-510	-491	-457	-448	-464	-448	-407	-395	-397	-397	-397	-409	-433	-438	-421	-419	-431	-424	-400
11:26:39.5800	599616120480165861	-419	-445	-417	-400	-452	-455	-122	556	941	469	-620	-1296	-963	-553	-666	-714	-577	-548	-544	-498	-488	-474	-426	-402	-402	-366	-316	-309	-304	-261	-225	-215	-203	-179	-146	-122	-107	-95	-81	-79	-62	-21	-2	-33	-91	-155	-220	-289	-352	-376	-378	-393	-390	-359	-345	-354	-371
11:26:39.9250	599616120917595614	-373	-349	-337	-349	-354	-373	-412	-424	-433	-505	-603	-639	-611	-606	-603	-560	-512	-503	-508	-486	-464	-472	-474	-455	-443	-433	-414	-390	-378	-381	-388	-371	-354	-383	-282	198	831	987	364	-553	-781	-361	-258	-405	-328	-268	-321	-321	-313	-347	-347	-306	-289	-289	-266	-227	-215
11:26:40.3760	599616121355010107	-208	-179	-155	-167	-194	-174	-136	-148	-203	-201	-131	-105	-100	-67	-59	-103	-136	-191	-304	-395	-433	-457	-467	-462	-448	-424	-412	-417	-405	-381	-366	-369	-376	-364	-342	-335	-333	-328	-337	-342	-318	-301	-301	-289	-278	-282	-301	-335	-354	-354	-364	-383	-390	-369	-354	-361	-347
11:26:40.7660	599616121792394084	-328	-323	-313	-309	-325	-222	258	920	1092	347	-807	-1092	-505	-330	-541	-464	-364	-438	-436	-357	-337	-354	-330	-294	-280	-273	-289	-313	-280	-242	-239	-208	-158	-131	-110	-86	-59	-28	-11	16	43	28	19	9	-52	-127	-186	-254	-311	-333	-335	-337	-345	-345	-323	-309	-323
11:26:41.2460	599616122229793319	-321	-301	-340	-443	-496	-426	-376	-409	-412	-376	-359	-357	-328	-289	-292	-309	-301	-304	-347	-383	-371	-349	-354	-371	-369	-366	-393	-419	-400	-405	-455	-301	268	908	946	91	-956	-1044	-512	-462	-613	-491	-424	-472	-438	-388	-390	-371	-335	-330	-325	-309	-294	-270	-244	-225	-220
11:26:41.7570	599616122667192554	-218	-191	-146	-115	-100	-76	-55	-43	-45	-115	-172	-148	-167	-244	-299	-345	-397	-436	-448	-445	-436	-426	-407	-381	-385	-390	-352	-318	-330	-340	-321	-304	-294	-280	-273	-292	-297	-263	-237	-230	-225	-244	-266	-297	-357	-366	-337	-345	-354	-349	-349	-345	-340	-342	-345	-378	-376
11:26:42.1430	599616123104591789	-55	611	1030	623	-426	-1049	-707	-369	-508	-536	-426	-436	-440	-388	-407	-448	-424	-405	-462	-515	-457	-407	-417	-385	-325	-299	-285	-256	-213	-177	-153	-122	-93	-79	-71	-59	-64	-100	-170	-234	-280	-335	-385	-388	-383	-405	-407	-381	-388	-412	-405	-378	-376	-414	-424	-376	-361
11:26:42.5910	599616123541991024	-383	-371	-340	-325	-325	-333	-335	-330	-385	-457	-419	-369	-402	-414	-381	-385	-405	-390	-369	-366	-366	-352	-359	-400	-436	-450	-388	-7	685	1042	488	-582	-1020	-591	-359	-548	-548	-428	-440	-448	-405	-390	-385	-369	-354	-333	-306	-297	-292	-268	-246	-239	-218	-184	-170	-170	-148
11:26:43.0910	599616123979390259	-112	-83	-76	-74	-79	-129	-232	-292	-287	-328	-407	-431	-428	-440	-455	-448	-421	-405	-397	-376	-364	-371	-361	-335	-318	-316	-318	-313	-297	-282	-297	-313	-304	-297	-304	-297	-292	-287	-268	-246	-234	-232	-232	-239	-258	-280	-275	-256	-258	-266	-268	-282	-294	-292	-309	-330	-153
11:26:43.4070	599616124416789490	405	985	869	-74	-881	-752	-373	-455	-556	-443	-409	-496	-563	-568	-539	-512	-491	-462	-433	-412	-388	-352	-323	-311	-289	-246	-206	-189	-182	-158	-124	-100	-79	-55	-47	-67	-93	-127	-201	-270	-292	-313	-364	-383	-364	-347	-345	-352	-345	-325	-321	-325	-311	-299	-311	-311	-299
11:26:43.8830	599616124854203986	-297	-304	-311	-316	-328	-397	-479	-450	-407	-440	-419	-345	-335	-354	-335	-321	-333	-347	-345	-328	-323	-347	-383	-397	-378	-369	-376	-388	-385	-170	409	910	656	-330	-1020	-714	-294	-414	-488	-369	-381	-405	-328	-289	-316	-328	-297	-256	-261	-270	-246	-225	-210	-177	-141	-127	-124
11:26:44.2760	599616125291618482	-115	-81	-45	-28	-19	0	-16	-98	-150	-117	-150	-285	-371	-395	-443	-503	-534	-594	-623	-527	-455	-452	-419	-388	-378	-352	-340	-340	-321	-311	-349	-373	-337	-311	-318	-323	-306	-289	-292	-301	-280	-251	-244	-242	-222	-210	-220	-246	-261	-266	-273	-292	-313	-325	-321	-306	-292
11:26:44.7260	599616125729017717	-304	-347	-357	-119	431	824	524	-397	-1076	-798	-352	-452	-546	-424	-402	-431	-388	-357	-349	-325	-316	-316	-287	-256	-246	-232	-215	-227	-232	-191	-150	-134	-119	-93	-55	-23	-9	4	-4	-55	-83	-91	-143	-222	-289	-333	-354	-361	-366	-357	-352	-354	-347	-321	-301	-301	-304
11:26:45.2060	599616126166416948	-299	-292	-301	-304	-285	-289	-373	-452	-419	-366	-381	-383	-354	-342	-342	-328	-306	-301	-316	-328	-325	-306	-282	-270	-268	-268	-297	-330	-342	-378	-412	-383	-354	-359	-369	-373	-364	-354	-376	-402	-275	189	788	915	222	-726	-872	-390	-337	-527	-428	-337	-378	-364	-325	-313	-294
11:26:45.5970	599616126603846705	-278	-266	-244	-234	-239	-225	-189	-174	-194	-206	-186	-179	-227	-237	-165	-129	-122	-67	-16	-11	-19	-23	-52	-112	-179	-227	-263	-299	-306	-287	-273	-273	-263	-239	-208	-189	-184	-172	-150	-139	-131	-131	-134	-122	-110	-112	-115	-117	-119	-95	-74	-91	-119	-112	-95	-141	-213
11:26:46.0760	599616127041245940	-222	-186	-136	-71	4	19	-52	-64	-210	-301	172	615	735	961	1138	1157	1193	1229	1258	1334	1385	1375	1332	1195	982	819	781	757	680	613	582	570	572	625	893	1253	1116	683	596	637	527	479	517	532	536	548	577	560	440	433	848	1509	1797	1263	225	-208	182
11:26:46.4970	599616127478660432	337	146	186	220	64	28	136	150	115	167	222	234	273	321	335	316	323	369	378	381	428	448	424	424	440	455	481	500	515	520	496	464	448	419	352	280	242	222	196	177	177	182	184	196	206	196	189	194	206	220	220	208	213	225	213	194	184
11:26:46.9160	599616127916074928	172	162	170	184	182	162	162	198	208	122	64	127	148	91	91	134	110	47	45	81	67	45	59	59	40	47	47	45	59	50	23	16	2	14	95	196	287	373	402	337	285	306	294	266	246	198	210	273	254	230	268	263	234	258	292	263	189
11:26:47.3670	599616128353474163	146	127	103	71	47	50	19	-86	-119	-59	-23	-14	2	7	2	-7	9	52	57	23	16	26	16	19	26	-7	-79	-110	-76	-62	-91	-100	-119	-160	-162	-139	-124	-98	-67	-45	-28	-23	-35	-47	-57	-76	-98	-105	-105	-117	-129	-148	-139	83	579	961	742
11:26:47.8150	599616128790903916	-74	-711	-527	-186	-285	-347	-251	-275	-373	-443	-443	-412	-414	-426	-421	-431	-455	-479	-484	-455	-462	-553	-572	-479	-484	-603	-599	-488	-520	-635	-572	-402	-266	-210	-414	-663	-558	-412	-560	-742	-759	-671	-632	-671	-618	-512	-579	-692	-613	-522	-608	-692	-630	-520	-515	-639	-695
11:26:48.2630	599616129228303151	-630	-572	-524	-551	-642	-661	-637	-632	-558	-505	-630	-738	-673	-623	-644	-632	-594	-579	-575	-560	-563	-587	-575	-541	-517	-510	-496	-481	-503	-532	-505	-455	-455	-474	-462	-431	-419	-421	-421	-409	-400	-407	-407	-388	-409	-440	-390	-369	-436	-464	-428	-419	-433	-440	-460	-491	-520
11:26:48.6560	599616129665702386	-553	-575	-548	-529	-536	-517	-373	-117	-201	-656	-759	-452	-16	484	508	-347	-1253	-1167	-659	-683	-793	-563	-376	-321	-167	-50	-91	-150	-186	-254	-318	-347	-328	-266	-239	-282	-292	-254	-242	-232	-174	-117	-74	-28	26	91	155	208	301	419	488	508	476	397	304	251	443
11:26:49.1070	599616130103101621	716	683	625	857	1066	1006	786	654	599	349	4	-100	9	-91	-469	-611	-544	-637	-747	-728	-730	-769	-747	-707	-697	-668	-632	-644	-675	-692	-678	-690	-759	-711	-556	-560	-637	-615	-603	-618	-594	-570	-553	-520	-498	-493	-474	-445	-448	-476	-481	-476	-488	-488	-462	-440	-440
11:26:49.7060	599616130540500856	-431	-407	-397	-436	-484	-311	249	790	716	-98	-1044	-1128	-572	-443	-587	-505	-421	-457	-457	-428	-419	-397	-381	-383	-354	-304	-287	-270	-225	-198	-196	-177	-143	-117	-86	-59	-35	2	26	43	74	81	45	26	23	-28	-129	-225	-289	-318	-333	-345	-335	-318	-306	-278	-258
11:26:50.0980	599616130977915348	-258	-251	-237	-234	-239	-244	-232	-225	-232	-237	-220	-198	-222	-275	-280	-251	-244	-263	-268	-251	-246	-258	-244	-225	-230	-227	-201	-194	-254	-333	-311	-270	-306	-335	-309	-287	-292	-294	-299	-309	-304	-297	-292	-323	-335	-43	615	1061	699	-328	-1004	-695	-325	-457	-496	-381	-405
11:26:50.4250	599616131415329844	-428	-364	-342	-349	-321	-299	-335	-361	-323	-282	-275	-258	-225	-198	-184	-165	-129	-103	-88	-45	-14	-47	-105	-119	-110	-124	-148	-186	-254	-337	-405	-433	-443	-460	-469	-452	-433	-419	-400	-373	-347	-335	-330	-304	-275	-266	-270	-268	-261	-254	-251	-242	-234	-251	-266	-261	-266
11:26:50.8760	599616131852713818	-282	-268	-249	-268	-328	-371	-340	-313	-359	-373	-311	-285	-311	-313	-306	-323	-330	-316	-297	-289	-297	-294	-270	-251	-263	-299	-304	-67	539	1061	862	-88	-865	-663	-230	-328	-431	-297	-273	-321	-280	-232	-230	-225	-208	-196	-179	-167	-153	-127	-115	-112	-93	-59	-35	-26	-4
11:26:51.2670	599616132290128314	28	52	71	103	136	143	119	91	67	-19	-198	-340	-361	-383	-431	-426	-405	-412	-414	-383	-349	-347	-345	-325	-311	-316	-318	-299	-280	-287	-297	-273	-254	-266	-263	-249	-249	-261	-287	-306	-294	-297	-318	-297	-273	-282	-285	-275	-292	-311	-311	-304	-285	-266	-261	-258	-261
11:26:51.8070	599616132727527549	-280	-289	-294	-354	-443	-440	-373	-373	-395	-361	-323	-323	-345	-364	-232	239	795	812	64	-781	-812	-328	-256	-402	-325	-256	-299	-292	-244	-227	-218	-201	-194	-182	-160	-150	-141	-117	-105	-103	-74	-47	-38	-21	4	21	19	4	16	55	62	45	45	26	-38	-122	-194
11:26:52.1930	599616133164926784	-256	-304	-323	-318	-316	-335	-337	-304	-285	-306	-311	-282	-266	-266	-249	-234	-251	-321	-369	-328	-301	-330	-321	-287	-289	-292	-266	-249	-244	-239	-249	-256	-249	-237	-230	-220	-210	-213	-210	-196	-182	-174	-172	-153	-141	-141	-141	-153	-182	-189	-174	-170	-174	-184	-194	-218	-270
11:26:52.6420	599616133602326019	-273	-232	-270	-258	136	812	1104	536	-570	-1121	-680	-316	-460	-469	-361	-405	-405	-316	-306	-335	-304	-268	-258	-239	-213	-189	-160	-155	-170	-148	-107	-83	-57	-33	-26	0	52	79	64	71	110	110	57	4	-52	-141	-201	-203	-210	-242	-251	-239	-230	-213	-194	-177	-174
11:26:53.2730	599616134039725250	-182	-186	-186	-201	-225	-232	-232	-256	-335	-417	-397	-335	-337	-354	-330	-309	-306	-301	-292	-285	-280	-268	-249	-244	-258	-230	-167	-148	-170	-162	-141	-146	-167	-174	-186	-215	-230	-213	-201	-198	-186	-182	-186	-201	-203	9	577	1114	1023	143	-798	-776	-239	-198	-340	-246	-206
11:26:53.4870	599616134477155007	-266	-254	-244	-282	-268	-218	-222	-225	-196	-184	-191	-186	-158	-141	-177	-194	-160	-158	-155	-95	-45	-40	-35	-9	19	19	-16	-76	-146	-225	-304	-342	-357	-393	-412	-378	-347	-357	-371	-352	-311	-292	-299	-301	-285	-282	-285	-258	-242	-254	-261	-246	-232	-234	-232	-218	-215
11:26:54.0270	599616134914554242	-225	-218	-201	-203	-208	-208	-206	-222	-301	-357	-304	-275	-304	-285	-246	-249	-251	-244	-261	-263	-237	-206	-172	-165	-191	-227	-251	-251	-251	-249	-242	-239	-237	-232	-232	-234	-237	-239	-263	-198	213	874	1136	551	-476	-860	-412	-218	-426	-407	-316	-359	-342	-282	-289	-292	-249
11:26:54.3560	599616135351953477	-220	-218	-218	-201	-177	-158	-143	-119	-95	-86	-69	-31	7	31	40	74	117	139	146	165	146	28	-124	-194	-239	-325	-373	-371	-373	-383	-371	-347	-342	-349	-361	-369	-354	-330	-321	-306	-287	-278	-268	-249	-249	-258	-242	-220	-225	-232	-222	-215	-213	-206	-189	-182	-191
11:26:54.8330	599616135789352708	-218	-218	-191	-182	-184	-182	-194	-261	-337	-311	-254	-266	-275	-242	-232	-256	-266	-246	-232	-232	-225	-213	-225	-246	-261	-273	-273	-258	-246	-242	-237	-239	-249	-242	-232	-244	-242	-215	-213	-227	-208	-177	-198	-254	-251	-203	-201	-234	-220	-186	-194	-198	-177	-177	-198	-201	-174
11:26:55.3160	599616136226767204	-158	-170	-179	-172	-182	-261	-337	-311	-289	-309	-268	-198	-186	-215	-230	-215	-218	-237	-220	-196	-198	-194	-182	-186	-191	-194	-194	-7	541	1092	1061	254	-702	-742	-194	-139	-313	-230	-179	-251	-242	-186	-179	-170	-148	-141	-124	-98	-95	-93	-71	-91	-139	-117	-52	-26	-19
11:26:55.7040	599616136664181700	2	38	62	67	83	115	131	136	136	115	47	-52	-158	-237	-301	-354	-373	-373	-445	-539	-503	-436	-445	-448	-405	-378	-361	-345	-342	-347	-342	-318	-294	-297	-306	-282	-261	-261	-263	-251	-232	-242	-256	-239	-222	-220	-220	-232	-234	-225	-218	-201	-177	-184	-208	-191	-167
11:26:56.1520	599616137101580935	-179	-179	-167	-208	-292	-323	-280	-258	-282	-282	-239	-208	-215	-213	-194	-203	-232	-227	-210	-215	-232	-244	-246	-232	-218	-208	-194	-208	-242	-91	436	1047	1128	409	-591	-814	-294	-122	-292	-256	-184	-208	-182	-143	-150	-150	-134	-129	-122	-117	-124	-129	-112	-105	-115	-117	-119
11:26:56.6650	599616137538980170	-112	-91	-83	-64	-16	-4	-67	-110	-64	-21	-33	-74	-167	-287	-354	-388	-426	-457	-472	-455	-424	-414	-412	-390	-369	-354	-335	-309	-304	-330	-337	-301	-275	-273	-263	-246	-244	-244	-234	-220	-210	-222	-234	-215	-189	-189	-194	-189	-189	-194	-191	-174	-158	-160	-172	-165	-148
11:26:57.0240	599616137976394662	-148	-153	-148	-155	-172	-158	-136	-165	-222	-218	-177	-174	-177	-160	-153	-189	-230	-213	-179	-184	-198	-218	-263	-287	-258	-227	-222	-234	-227	-201	-184	-198	-249	-206	182	814	1092	615	-325	-788	-428	-184	-361	-385	-282	-294	-306	-261	-239	-242	-232	-210	-191	-191	-198	-172	-119
11:26:57.4170	599616138413809158	-91	-93	-105	-93	-45	-14	-2	40	74	38	-26	-19	31	21	-31	-64	-91	-143	-218	-278	-299	-321	-376	-402	-354	-321	-342	-349	-316	-292	-297	-313	-313	-289	-263	-258	-263	-258	-237	-218	-220	-225	-222	-222	-225	-225	-215	-198	-198	-198	-182	-158	-143	-146	-153	-127	-98
11:26:57.8660	599616138851208393	-103	-105	-95	-105	-103	-64	-52	-143	-244	-237	-230	-278	-282	-249	-246	-258	-227	-196	-215	-239	-218	-191	-179	-172	-160	-131	-107	-100	-110	-119	-131	-150	-165	-167	-177	-189	-186	-198	-225	-227	-234	-258	-273	-261	-38	539	1080	977	122	-728	-668	-186	-189	-321	-225	-191	-232
11:26:58.2860	599616139288607628	-203	-177	-174	-158	-143	-143	-141	-122	-136	-215	-232	-165	-150	-165	-110	-55	-43	-23	19	69	105	139	177	191	191	174	131	67	-35	-155	-230	-268	-309	-335	-323	-311	-318	-311	-285	-273	-270	-263	-251	-249	-249	-239	-206	-191	-208	-234	-249	-239	-234	-239	-230	-234	-254
11:26:58.7360	599616139726006863	-261	-256	-249	-249	-242	-234	-292	-383	-373	-306	-304	-311	-278	-254	-263	-258	-215	-198	-210	-198	-198	-230	-239	-222	-218	-225	-234	-234	-203	-167	-167	-206	-263	-194	266	980	1286	716	-414	-929	-440	-155	-371	-347	-208	-256	-270	-201	-201	-218	-194	-172	-162	-150	-136	-110	-88
11:26:59.2460	599616140163406098	-98	-115	-112	-86	-55	-35	-2	16	-31	-64	0	47	47	67	76	21	-88	-201	-282	-347	-400	-426	-452	-496	-512	-491	-457	-431	-419	-417	-417	-405	-381	-371	-373	-352	-297	-258	-268	-294	-299	-311	-335	-318	-294	-289	-278	-292	-311	-285	-254	-266	-285	-282	-261	-249	-258
11:26:59.6640	599616140600805333	-266	-251	-249	-242	-210	-208	-218	-194	-174	-194	-222	-234	-225	-201	-220	-256	-249	-275	-364	-373	-301	-289	-325	-337	-345	-273	158	896	1325	862	-294	-891	-443	-172	-414	-390	-230	-268	-275	-220	-227	-222	-165	-131	-150	-155	-131	-119	-112	-105	-98	-76	-52	-45	-35	9	38
11:27:00.0980	599616141038204568	33	86	191	251	258	246	194	91	-26	-107	-182	-280	-347	-357	-357	-400	-414	-357	-357	-409	-414	-400	-400	-414	-440	-431	-397	-395	-390	-371	-359	-335	-299	-287	-309	-333	-328	-313	-304	-301	-299	-289	-273	-268	-268	-254	-237	-237	-232	-227	-251	-246	-201	-198	-227	-234	-222
11:27:00.6170	599616141475619060	-201	-177	-165	-150	-146	-184	-210	-189	-194	-220	-210	-186	-198	-261	-313	-278	-239	-261	-311	-268	93	726	1104	728	-213	-714	-378	-150	-349	-402	-285	-278	-309	-266	-222	-218	-203	-189	-184	-165	-136	-122	-105	-83	-81	-81	-47	-14	-4	11	52	79	95	122	148	172	177
11:27:00.9270	599616141913033556	153	119	59	-33	-131	-218	-285	-337	-345	-323	-330	-349	-328	-299	-299	-301	-280	-273	-330	-407	-390	-330	-347	-364	-318	-306	-337	-323	-289	-309	-340	-342	-342	-333	-328	-342	-369	-400	-409	-378	-354	-357	-352	-333	-318	-313	-306	-299	-297	-282	-268	-263	-251	-244	-249	-232	-208
11:27:01.3720	599616142350432791	-213	-222	-208	-196	-196	-191	-177	-177	-234	-328	-325	-275	-294	-304	-270	-261	-261	-242	-220	-210	-215	-215	-194	-179	-184	-182	-165	-165	-172	-162	-136	-129	-141	-146	-136	-127	-124	-119	-112	-119	-122	-81	-40	-59	-112	-153	-177	-177	-174	-172	-160	-160	-162	-148	-131	-136	-160
11:27:01.8550	599616142787832026	-186	-158	134	762	1255	1025	-11	-905	-673	-184	-313	-421	-270	-242	-278	-237	-206	-208	-198	-189	-179	-160	-143	-131	-124	-105	-81	-59	-33	-14	-14	7	45	52	71	117	136	139	153	158	143	107	35	-40	-117	-210	-285	-318	-347	-373	-376	-376	-371	-373	-400	-397	-357
11:27:02.2470	599616143225231261	-342	-345	-328	-309	-306	-292	-270	-275	-311	-316	-280	-273	-289	-278	-256	-289	-342	-330	-287	-289	-294	-275	-261	-261	-261	-254	-266	-280	-266	-246	-237	-215	-191	-184	-174	-174	-179	-182	-196	-218	-215	-191	-184	-194	-194	-182	-170	-174	-201	-227	-83	443	1104	1248	524	-510	-730
11:27:02.6470	599616143662630492	-244	-174	-385	-297	-203	-273	-301	-266	-232	-266	-347	-349	-282	-263	-256	-213	-177	-179	-184	-146	-100	-88	-83	-62	-33	2	40	76	98	91	76	59	2	-93	-189	-268	-345	-400	-417	-414	-414	-417	-402	-376	-364	-361	-340	-318	-316	-306	-280	-258	-256	-263	-258	-251	-254
11:27:03.3830	599616144100029731	-246	-230	-234	-316	-405	-373	-309	-321	-342	-323	-299	-292	-275	-251	-258	-301	-311	-273	-254	-258	-249	-239	-244	-244	-210	-162	-158	-177	-162	-155	-184	-206	-203	-203	-203	-194	-177	-167	-174	-186	-186	-208	-249	-146	313	932	1090	464	-457	-692	-258	-139	-301	-239	-160	-206	-198
11:27:03.5370	599616144537459484	-153	-155	-150	-112	-98	-110	-105	-76	-64	-62	-33	-11	-16	-14	7	16	14	21	62	115	141	141	150	131	67	23	-2	-79	-179	-254	-294	-313	-330	-347	-330	-316	-376	-421	-359	-313	-340	-323	-273	-273	-287	-266	-242	-261	-287	-261	-215	-218	-237	-210	-184	-196	-206
11:27:04.0170	599616144974858719	-182	-146	-153	-201	-174	-105	-148	-261	-278	-227	-218	-215	-196	-196	-184	-160	-153	-139	-112	-112	-117	-105	-100	-98	-88	-81	-86	-105	-112	-112	-110	-117	-153	-165	-141	-141	-141	-129	-177	-177	160	836	1301	989	-19	-702	-409	-69	-227	-263	-127	-146	-179	-115	-93	-122	-115
11:27:04.4060	599616145412288472	-86	-76	-79	-76	-38	-28	-45	-2	7	-21	14	47	-14	-71	-19	31	26	40	62	71	86	81	28	-76	-189	-254	-301	-342	-369	-400	-414	-395	-381	-366	-330	-318	-333	-311	-278	-270	-275	-301	-330	-316	-285	-273	-266	-268	-268	-254	-244	-244	-237	-225	-220	-225	-222
11:27:04.8570	599616145849687707	-210	-201	-198	-210	-220	-249	-311	-347	-297	-246	-251	-251	-237	-242	-258	-261	-234	-220	-227	-213	-196	-194	-186	-179	-184	-222	-153	306	1006	1294	716	-318	-678	-273	-134	-292	-256	-222	-266	-220	-172	-186	-170	-139	-136	-139	-112	-88	-91	-100	-107	-100	-76	-55	-23	19	31
11:27:05.2770	599616146287086938	38	83	131	153	160	167	179	127	-11	-112	-146	-234	-345	-361	-349	-385	-397	-369	-354	-347	-325	-299	-282	-292	-301	-268	-251	-266	-249	-227	-239	-242	-227	-225	-227	-230	-220	-208	-218	-222	-201	-186	-196	-203	-213	-225	-208	-210	-237	-227	-206	-208	-215	-230	-251	-254	-239
11:27:05.7820	599616146724501434	-246	-285	-321	-330	-304	-342	-438	-426	-371	-385	-381	-337	-328	-321	-304	-309	-301	-270	-258	-280	-301	-292	-270	-263	-251	-237	-234	-237	-227	-220	-213	-203	-196	-198	-196	-186	-182	-172	-165	-177	-186	-172	-160	-158	-160	-165	-155	-141	-127	-100	-88	-136	-189	-172	-150	-170	-191
11:27:06.2940	599616147161915930	-191	-172	-160	-162	-155	-150	-184	-249	-261	21	642	1121	903	-16	-781	-637	-282	-395	-488	-369	-328	-342	-301	-278	-275	-244	-222	-227	-206	-177	-179	-174	-139	-110	-100	-86	-71	-47	-23	-21	-11	23	45	59	93	110	91	71	52	4	-64	-141	-215	-285	-342	-373	-381
11:27:07.0720	599616147599315165	-371	-373	-397	-393	-366	-369	-364	-333	-323	-330	-306	-280	-282	-285	-273	-280	-330	-393	-402	-388	-393	-383	-347	-337	-373	-383	-352	-335	-328	-309	-294	-282	-278	-289	-294	-275	-258	-254	-239	-232	-237	-225	-201	-198	-206	-203	-191	-182	-177	-172	-153	-146	-160	-162	-148	-143	-143
11:27:07.2260	599616148036744918	-131	-119	-122	-115	-103	-124	-153	-141	-131	-150	-158	-160	-167	-150	-110	-79	-69	-81	-119	-136	-115	-131	-174	-158	-127	-146	-189	-215	-225	-222	-268	-294	-40	556	1061	917	26	-798	-675	-234	-313	-476	-393	-337	-349	-345	-371	-366	-316	-301	-299	-273	-249	-249	-249	-220	-184
11:27:07.5550	599616148474144153	-203	-249	-218	-153	-124	-91	-35	7	11	14	55	100	105	91	76	21	-69	-146	-201	-263	-323	-354	-349	-337	-345	-333	-309	-328	-359	-328	-285	-330	-414	-400	-333	-333	-366	-349	-318	-321	-309	-280	-266	-261	-261	-254	-234	-225	-239	-242	-225	-227	-222	-194	-182	-194	-191
11:27:07.9430	599616148911543388	-174	-162	-158	-158	-158	-177	-227	-230	-170	-160	-210	-213	-186	-208	-239	-227	-213	-242	-278	-254	-215	-213	-222	-234	-261	-285	-186	263	905	1097	481	-481	-788	-347	-167	-349	-337	-273	-318	-297	-237	-251	-261	-242	-263	-289	-251	-218	-225	-213	-172	-143	-129	-119	-103	-86	-67
11:27:08.3980	599616149348942623	-33	11	43	16	-40	-26	35	38	7	-28	-100	-208	-297	-335	-364	-395	-395	-381	-371	-347	-325	-311	-289	-270	-256	-234	-222	-220	-206	-189	-213	-244	-232	-208	-208	-210	-201	-184	-184	-196	-189	-167	-167	-172	-165	-160	-155	-150	-148	-146	-150	-155	-143	-155	-201	-203	-165
11:27:08.9070	599616149786341854	-148	-139	-119	-112	-119	-153	-184	-182	-172	-177	-174	-167	-182	-258	-328	-301	-280	-335	-313	14	615	994	654	-275	-879	-589	-230	-345	-400	-297	-299	-313	-270	-256	-254	-230	-215	-215	-203	-179	-167	-165	-141	-112	-98	-81	-45	-19	-11	14	57	91	112	134	153	167	165
11:27:09.5940	599616150223756350	155	131	55	-59	-162	-246	-318	-354	-364	-354	-337	-330	-335	-328	-309	-299	-278	-256	-261	-270	-251	-242	-292	-373	-366	-306	-309	-325	-292	-263	-268	-266	-242	-234	-249	-251	-225	-210	-225	-227	-201	-191	-201	-194	-196	-227	-220	-162	-129	-134	-141	-148	-155	-167	-179	-177	-165
11:27:10.1050	599616150661170846	-172	-177	-155	-136	-134	-143	-148	-153	-129	143	738	1133	759	-254	-922	-572	-117	-239	-313	-206	-270	-328	-227	-189	-225	-196	-148	-136	-127	-112	-103	-98	-98	-76	-33	-16	-21	9	69	100	95	110	153	184	196	210	225	208	153	81	0	-95	-186	-244	-294	-354	-381
11:27:10.1970	599616151098554820	-354	-330	-337	-342	-328	-313	-321	-328	-318	-309	-309	-294	-266	-258	-278	-275	-254	-258	-273	-254	-251	-278	-282	-282	-275	-244	-251	-294	-280	-234	-218	-196	-170	-172	-177	-177	-189	-203	-220	-208	-174	-179	-194	-167	-155	-177	-174	-158	-177	-81	373	987	1102	361	-692	-927	-357
11:27:10.6730	599616151535969316	-155	-340	-292	-213	-270	-270	-225	-242	-309	-333	-278	-251	-261	-218	-167	-155	-136	-107	-100	-124	-160	-129	-50	-23	-23	26	81	107	127	139	112	40	-55	-148	-246	-337	-376	-383	-402	-407	-381	-349	-349	-349	-318	-285	-278	-287	-278	-254	-239	-237	-220	-203	-222	-237	-206
11:27:11.2130	599616151973368551	-184	-194	-196	-191	-194	-196	-189	-177	-184	-242	-289	-275	-256	-263	-263	-237	-201	-206	-254	-268	-263	-304	-323	-270	-246	-282	-297	-285	-292	-306	-323	-359	-227	340	1090	1217	349	-673	-774	-309	-301	-524	-445	-347	-381	-352	-294	-306	-297	-242	-225	-234	-213	-170	-139	-124	-134
11:27:11.9330	599616152410767786	-115	-55	-21	-14	19	59	76	76	107	160	189	203	208	191	165	112	4	-112	-177	-206	-230	-234	-227	-234	-237	-213	-218	-285	-311	-261	-237	-251	-246	-225	-208	-210	-218	-206	-218	-242	-225	-203	-210	-191	-160	-158	-165	-172	-194	-227	-251	-239	-206	-189	-201	-201	-179
11:27:22.2720	599616163253843702	-134	-131	-122	-115	-122	-105	-74	-76	-93	-71	-45	-50	-43	-9	-2	-31	-28	26	50	35	52	91	86	52	26	26	26	-35	-129	-170	-208	-270	-311	-345	-359	-347	-335	-330	-330	-330	-311	-280	-270	-275	-280	-268	-249	-254	-263	-254	-258	-273	-251	-225	-225	-225	-218
11:27:22.6610	599616163691258198	-218	-220	-210	-203	-198	-198	-201	-179	-184	-280	-357	-309	-270	-292	-270	-237	-234	-249	-249	-225	-206	-203	-213	-237	-246	-218	-198	-196	-191	-194	-194	-174	-174	-210	-213	-184	-182	-186	-170	-160	-158	-141	-127	-124	-119	-105	-86	-83	-141	-189	-165	-143	-158	-162	-182	-220	-227
11:27:23.1420	599616164128657433	-222	-258	-318	-306	91	781	989	318	-651	-893	-424	-266	-421	-357	-278	-330	-311	-239	-232	-239	-215	-189	-179	-177	-148	-112	-105	-107	-79	-57	-67	-55	-11	4	21	62	105	122	122	139	162	134	52	2	-31	-117	-206	-242	-254	-273	-294	-297	-275	-261	-261	-242	-213
11:27:23.5870	599616164566087186	-218	-230	-201	-172	-177	-198	-198	-186	-234	-316	-306	-261	-278	-282	-246	-232	-234	-230	-220	-215	-215	-206	-184	-189	-208	-191	-160	-165	-177	-162	-148	-153	-174	-186	-172	-167	-174	-184	-198	-215	-218	-225	-237	-230	-206	-186	-162	-153	-167	-184	-206	-261	-287	-258	-239	-237	-227
11:27:24.0110	599616165003486421	-215	-201	-196	-215	-246	-186	139	697	1006	534	-438	-814	-397	-225	-421	-400	-280	-292	-294	-237	-220	-230	-208	-167	-141	-136	-139	-122	-91	-69	-57	-33	-16	-14	11	52	86	112	129	143	170	206	210	191	139	55	-16	-69	-134	-198	-230	-237	-254	-268	-254	-232	-230
11:27:24.4320	599616165440916174	-230	-227	-242	-251	-242	-227	-215	-230	-301	-337	-280	-266	-297	-266	-234	-244	-234	-213	-220	-234	-232	-210	-184	-186	-206	-189	-158	-158	-167	-160	-155	-174	-194	-177	-155	-179	-198	-160	-148	-198	-206	-196	-225	-230	-201	-189	-201	-220	-215	-191	-182	-194	-203	-191	-177	-189	-191
11:27:24.9070	599616165878315409	-162	-148	-170	-182	-162	-186	-287	-313	-246	-227	-270	-278	-239	-222	-234	-227	-206	-198	-184	-160	-158	-167	-134	-81	-71	-98	-134	-160	-155	-160	-177	-150	-129	-158	-160	-122	-117	-139	-155	-150	67	625	1107	908	21	-654	-431	-52	-153	-232	-131	-136	-162	-117	-95	-98	-86
11:27:25.3870	599616166315714644	-88	-103	-95	-71	-59	-52	-50	-103	-170	-143	-76	-71	-71	-19	26	57	93	112	112	110	119	141	131	69	-2	-67	-148	-225	-258	-268	-285	-289	-275	-280	-299	-294	-266	-249	-244	-230	-213	-222	-234	-213	-179	-172	-184	-189	-177	-165	-172	-177	-160	-158	-160	-155	-153
11:27:25.7810	599616166753129136	-153	-150	-158	-158	-148	-150	-167	-165	-158	-170	-167	-153	-184	-273	-318	-287	-251	-242	-218	-179	-174	-194	-194	-184	-194	-208	-203	-201	-242	-266	-227	-206	-232	-244	-246	-208	105	730	1121	735	-273	-903	-560	-194	-347	-390	-256	-275	-311	-256	-230	-237	-220	-198	-191	-179	-165
11:27:26.1990	599616167190543632	-153	-131	-107	-95	-74	-50	-52	-52	-23	19	2	-59	-40	50	71	47	47	33	-35	-127	-194	-258	-325	-364	-371	-373	-369	-354	-330	-316	-316	-299	-263	-239	-239	-242	-256	-287	-294	-273	-251	-254	-258	-239	-213	-210	-213	-208	-225	-242	-222	-194	-186	-189	-191	-177	-167
11:27:26.6220	599616167627942867	-167	-162	-153	-160	-218	-270	-237	-203	-256	-297	-242	-177	-177	-177	-160	-170	-191	-196	-189	-186	-201	-198	-186	-203	-215	-186	-172	-203	-249	-119	414	1100	1236	505	-464	-632	-179	-107	-297	-246	-172	-201	-182	-146	-167	-206	-196	-162	-155	-162	-160	-153	-134	-100	-86	-95	-98
11:27:27.0420	599616168065372620	-79	-64	-59	-33	9	23	-40	-74	-2	40	2	-35	-83	-170	-261	-328	-366	-390	-400	-393	-376	-361	-349	-330	-323	-316	-289	-261	-251	-249	-246	-242	-232	-230	-220	-198	-198	-210	-196	-174	-172	-179	-184	-162	-146	-160	-155	-139	-148	-165	-153	-139	-139	-165	-206	-215	-191
11:27:27.5510	599616168502771855	-189	-186	-162	-201	-306	-352	-301	-275	-301	-289	-251	-242	-237	-213	-198	-201	-191	-174	-172	-172	-170	-165	-155	-143	-134	-124	-124	-131	-127	-110	-100	-100	-98	-98	-103	-95	-86	-93	-122	-134	-112	-93	-91	-98	-103	-95	-88	-88	-83	-76	-91	-122	-119	-98	-103	-112	-105
11:27:27.9360	599616168940201608	-117	-139	-141	-141	-162	-196	-227	-218	-184	-198	-220	-208	-218	-297	-340	-282	-261	-304	-304	-266	-268	-278	-256	-242	-254	-246	-210	-198	-198	-222	-251	-64	496	1064	1025	232	-572	-532	-124	-167	-311	-227	-184	-208	-179	-160	-170	-150	-129	-127	-103	-71	-67	-71	-47	-19	-9
11:27:28.4200	599616169377600843	0	33	40	-47	-105	-16	62	64	91	148	177	182	196	201	110	-9	-59	-100	-172	-234	-285	-318	-323	-311	-297	-292	-278	-261	-251	-234	-218	-208	-196	-189	-189	-184	-160	-150	-177	-184	-150	-131	-143	-148	-139	-143	-155	-150	-139	-127	-129	-146	-155	-153	-160	-167	-150
11:27:28.8120	599616169815000078	-134	-148	-150	-119	-107	-136	-146	-127	-129	-139	-122	-122	-184	-258	-246	-198	-196	-201	-186	-177	-174	-172	-179	-213	-227	-198	-189	-222	-244	-239	-220	-213	-227	-230	-213	-227	-249	-246	-244	-249	-244	-249	-256	-237	-227	-220	-196	-203	-237	-230	-198	-182	-167	-153	-148	-150	-150
11:27:29.2910	599616170252399313	-150	-174	-222	-246	-220	-203	-251	-321	-318	-285	-292	-318	-285	11	635	1128	910	-19	-738	-512	-134	-254	-342	-227	-201	-222	-196	-182	-167	-141	-153	-186	-186	-162	-155	-148	-110	-88	-91	-69	-28	-14	0	45	81	93	117	162	203	213	208	208	194	143	67	-16	-93
11:27:29.7100	599616170689829066	-172	-225	-237	-244	-266	-268	-251	-232	-220	-222	-242	-263	-323	-361	-313	-273	-287	-285	-258	-239	-232	-222	-206	-215	-249	-251	-225	-208	-210	-218	-234	-249	-249	-251	-261	-263	-273	-273	-246	-242	-282	-335	-342	-318	-309	-301	-282	-273	-278	-266	-249	-242	-232	-215	-210	-213	-208
11:27:30.2220	599616171127228301	-191	-182	-189	-186	-167	-167	-186	-179	-160	-208	-294	-299	-239	-225	-244	-234	-225	-234	-232	-215	-203	-198	-184	-172	-172	-165	-158	-160	-143	-131	-139	-127	-112	-122	-127	-105	-95	-107	-105	-86	-86	-93	-76	-50	-45	-57	-59	-59	-81	-131	-182	-179	-158	-162	-150	-124	-131
11:27:30.6100	599616171564627532	-150	-143	-160	-143	194	834	1203	812	-122	-618	-289	-98	-318	-311	-184	-242	-261	-189	-210	-289	-292	-251	-232	-230	-234	-242	-232	-215	-206	-189	-172	-146	-115	-86	-59	-35	-7	38	76	98	119	143	143	115	64	0	-79	-172	-239	-266	-289	-309	-301	-292	-294	-294	-294
11:27:31.0310	599616172002042028	-282	-273	-294	-304	-278	-282	-294	-263	-239	-254	-234	-194	-213	-289	-316	-278	-256	-254	-230	-218	-230	-230	-206	-182	-189	-196	-177	-167	-167	-155	-148	-172	-189	-172	-158	-153	-146	-143	-146	-134	-127	-131	-122	-107	-110	-119	-115	-105	-103	-88	-81	-100	-119	-98	-74	-86	-100
11:27:31.4820	599616172439456524	-83	-64	-83	-110	-86	-83	-143	-172	-139	-141	-234	-340	-340	-275	-261	-270	-242	-215	-225	-225	-201	-191	-186	-172	-155	-134	-117	-112	-110	-127	-162	-167	-143	-139	-141	-129	-124	-131	-139	-158	-177	-35	450	1052	1162	469	-484	-656	-194	-105	-278	-201	-122	-182	-184	-129	-110
11:27:31.8980	599616172876855759	-112	-110	-100	-91	-81	-62	-38	-31	-35	-23	7	19	-26	-88	-74	-19	19	52	67	55	62	69	79	91	57	-14	-103	-198	-282	-349	-393	-400	-412	-431	-407	-381	-385	-369	-335	-335	-333	-304	-287	-282	-285	-299	-301	-278	-261	-258	-251	-256	-261	-237	-215	-222	-232
11:27:32.3460	599616173314254990	-222	-210	-215	-210	-179	-189	-275	-335	-287	-256	-297	-309	-275	-266	-266	-230	-198	-220	-246	-227	-218	-239	-234	-215	-210	-203	-196	-225	-242	-220	-218	-220	-194	-179	-184	-182	-174	-160	-146	-139	-131	-136	-139	-124	-115	-122	-117	-105	-105	-107	-110	-103	-110	-143	-148	-115	-107
11:27:32.8610	599616173751684747	-127	-122	-103	-107	-112	-98	-91	-119	-196	-232	-177	-150	-177	-172	-162	-191	-218	-196	-165	-165	-170	-160	-148	-155	-179	-184	4	534	1097	1095	306	-551	-546	-129	-160	-321	-258	-220	-239	-215	-184	-177	-162	-148	-139	-124	-107	-98	-83	-64	-62	-55	-28	-2	11	31	57
11:27:33.2800	599616174189083978	79	98	110	117	146	167	162	172	162	100	28	-64	-174	-256	-311	-340	-354	-395	-424	-390	-371	-433	-488	-445	-405	-409	-381	-342	-337	-335	-321	-299	-275	-270	-282	-294	-301	-301	-289	-268	-251	-258	-261	-234	-234	-273	-273	-246	-251	-251	-225	-208	-208	-210	-198	-179	-184
11:27:33.6710	599616174626498474	-196	-172	-150	-165	-162	-136	-143	-222	-304	-297	-275	-285	-258	-220	-220	-232	-213	-189	-186	-182	-165	-153	-150	-158	-146	-127	-129	-134	-124	-115	-112	-107	-103	-100	-95	-88	-79	-74	-88	-105	-91	-91	-119	-127	-110	-103	-103	-105	-98	-83	-93	-122	-112	-93	-122	-136	-105
11:27:34.0610	599616175063912970	-86	-76	-64	-64	-69	-81	-110	-124	-115	-107	-107	-107	-139	-220	-258	-225	-246	-215	174	810	1078	584	-292	-639	-316	-155	-287	-261	-184	-206	-208	-165	-148	-143	-127	-112	-107	-98	-76	-57	-43	-40	-40	-21	0	11	33	57	67	62	71	107	127	141	167	167	141
11:27:34.6560	599616175501312205	119	71	-26	-127	-191	-258	-405	-558	-563	-508	-522	-520	-460	-421	-421	-414	-385	-354	-342	-325	-304	-299	-297	-287	-292	-297	-287	-278	-261	-244	-242	-230	-213	-222	-225	-201	-191	-194	-191	-189	-174	-165	-170	-155	-148	-160	-158	-139	-131	-131	-139	-131	-110	-110	-124	-127	-136
11:27:34.9610	599616175938711436	-162	-158	-129	-122	-136	-141	-134	-131	-129	-119	-110	-127	-210	-280	-268	-266	-285	-266	-244	-239	-232	-208	-182	-182	-196	-191	-165	-153	-158	-146	-122	-115	-119	-105	-93	-122	-150	-136	-131	-155	-143	-122	-129	-136	-117	-105	-136	-172	-4	524	1066	1006	225	-551	-508	-91	-100
11:27:35.4110	599616176376141193	-222	-136	-117	-170	-136	-103	-115	-107	-91	-117	-189	-227	-177	-136	-148	-131	-83	-67	-69	-43	-11	2	9	4	21	81	117	129	158	158	124	105	67	-40	-146	-213	-275	-330	-373	-414	-421	-412	-395	-357	-347	-364	-335	-292	-297	-306	-287	-266	-256	-254	-251	-232	-227
11:27:35.8010	599616176813540428	-239	-230	-208	-208	-210	-201	-208	-220	-208	-179	-167	-239	-340	-349	-311	-313	-313	-280	-266	-278	-261	-227	-215	-220	-225	-198	-158	-148	-141	-122	-129	-158	-201	-230	-215	-201	-210	-203	-172	-155	-150	-148	-172	-189	-9	512	1049	1023	246	-630	-678	-220	-158	-285	-218	-172	-198
11:27:36.2810	599616177250939663	-167	-143	-162	-150	-129	-191	-278	-244	-174	-179	-170	-134	-122	-98	-57	-45	-26	11	43	74	107	139	184	220	220	206	184	129	35	-79	-165	-210	-263	-311	-309	-292	-301	-301	-278	-261	-275	-299	-285	-244	-230	-234	-222	-208	-203	-201	-206	-196	-184	-201	-203	-179	-186
11:27:36.6960	599616177688338894	-206	-196	-184	-179	-174	-170	-189	-208	-186	-158	-189	-299	-361	-297	-278	-330	-318	-282	-294	-292	-261	-244	-244	-246	-261	-278	-292	-330	-345	-325	-345	-347	-304	-292	-289	-278	-289	-321	-321	-83	551	1131	987	95	-685	-579	-198	-273	-393	-325	-323	-333	-275	-258	-273	-237	-203
11:27:37.2110	599616178125753390	-210	-198	-170	-179	-227	-282	-282	-220	-196	-203	-158	-98	-67	-35	7	40	71	103	139	158	141	95	43	-31	-129	-206	-254	-299	-318	-301	-292	-292	-292	-289	-278	-270	-280	-270	-246	-246	-244	-222	-203	-208	-222	-215	-194	-196	-203	-189	-177	-184	-189	-174	-160	-162	-172
11:27:37.6010	599616178563167886	-182	-210	-239	-225	-201	-201	-213	-215	-196	-184	-196	-215	-208	-186	-196	-208	-177	-182	-278	-342	-285	-249	-268	-258	-232	-220	-218	-206	-191	-196	-203	-186	-162	-167	-177	-165	-155	-167	-174	-160	-141	-143	-158	-170	-155	-143	-148	-141	-134	-143	-141	-115	-107	-131	-139	-119	-107
11:27:38.0780	599616179000567121	-112	-115	-110	-122	-143	-148	-148	-167	-191	-203	-218	-256	-325	-361	-335	-345	-361	-318	-282	-294	-316	-323	-313	-316	-330	-316	-306	-325	-318	-282	-270	-280	-294	-328	-254	179	862	1181	651	-376	-771	-340	-170	-373	-340	-234	-273	-275	-222	-225	-246	-227	-191	-170	-155	-141	-124
11:27:38.5620	599616179437966352	-110	-103	-98	-76	-50	-47	-47	-16	26	14	-50	-59	7	33	31	71	107	81	14	-62	-129	-203	-280	-335	-385	-424	-421	-393	-383	-378	-359	-333	-306	-301	-294	-266	-256	-261	-239	-210	-208	-220	-215	-203	-198	-194	-172	-167	-186	-186	-160	-153	-167	-174	-167	-146	-136
11:27:39.0380	599616179875396109	-158	-165	-153	-174	-191	-165	-146	-215	-311	-301	-254	-256	-251	-220	-213	-227	-222	-198	-186	-189	-189	-162	-131	-124	-119	-107	-110	-150	-208	-218	-179	-182	-220	-210	-189	-196	-203	-203	-239	-227	105	774	1212	862	-177	-910	-635	-234	-330	-373	-273	-289	-297	-232	-218	-227	-198
11:27:39.3390	599616180312795344	-177	-177	-153	-124	-124	-124	-119	-131	-134	-95	-55	-47	-38	-2	31	64	110	127	124	153	143	50	-7	-4	-79	-210	-270	-304	-357	-381	-381	-381	-373	-361	-337	-313	-323	-347	-337	-323	-323	-313	-294	-268	-256	-256	-242	-232	-237	-230	-206	-194	-203	-213	-198	-186	-189
11:27:39.7910	599616180750225097	-179	-160	-186	-275	-313	-261	-239	-261	-239	-208	-220	-232	-210	-194	-222	-249	-213	-177	-189	-191	-179	-184	-182	-148	-112	-95	-93	-93	-91	-98	-117	-131	-148	-165	-165	-153	-146	-143	-158	-177	-201	-239	-134	364	997	1061	289	-647	-762	-321	-273	-424	-333	-268	-309	-270	-227
11:27:40.2530	599616181187624332	-242	-227	-184	-174	-174	-160	-143	-117	-98	-95	-74	-59	-127	-194	-143	-74	-67	-40	23	67	88	110	119	124	115	88	47	-21	-115	-191	-239	-280	-304	-294	-273	-282	-304	-282	-246	-246	-246	-230	-225	-222	-201	-177	-167	-184	-194	-170	-150	-167	-179	-191	-225	-237	-213
11:27:40.6330	599616181625054085	-191	-182	-189	-194	-177	-165	-167	-155	-139	-162	-249	-311	-268	-225	-254	-261	-222	-201	-206	-203	-186	-184	-186	-160	-146	-158	-167	-174	-198	-220	-206	-179	-177	-184	-184	-170	-160	-179	-203	-210	-220	-239	-251	-239	-222	-230	-230	-213	-196	-189	-206	-239	-146	278	891	1114	539
11:27:41.0510	599616182062453320	-395	-675	-263	-134	-333	-333	-270	-330	-409	-395	-325	-306	-309	-268	-234	-220	-203	-184	-162	-139	-119	-100	-74	-50	-38	-14	21	45	69	110	150	165	172	191	194	153	86	26	-33	-110	-179	-210	-230	-254	-254	-232	-225	-220	-218	-210	-194	-179	-179	-177	-186	-198	-179
11:27:41.5020	599616182499867812	-153	-150	-165	-172	-170	-220	-313	-309	-254	-278	-301	-273	-258	-251	-258	-285	-278	-254	-242	-218	-215	-232	-220	-203	-203	-203	-189	-177	-165	-158	-155	-136	-115	-105	-88	-79	-95	-107	-112	-129	-143	-141	-146	-162	-165	-155	-148	-134	-146	-177	-64	388	970	1092	440	-472	-671
11:27:42.0070	599616182937282308	-220	-71	-225	-196	-131	-158	-155	-196	-278	-239	-182	-210	-203	-150	-129	-127	-110	-93	-103	-105	-74	-31	-19	-55	-64	4	57	64	91	119	112	110	112	74	9	-81	-189	-256	-297	-337	-342	-340	-357	-352	-323	-309	-309	-299	-280	-275	-278	-275	-258	-251	-256	-237	-210
11:27:42.4000	599616183374681543	-213	-225	-218	-203	-203	-201	-189	-177	-179	-203	-213	-194	-203	-258	-275	-244	-258	-297	-258	-196	-191	-196	-182	-179	-196	-210	-220	-222	-222	-218	-198	-203	-249	-251	-208	-220	-258	-141	316	941	1159	575	-443	-788	-306	-95	-275	-239	-148	-182	-174	-141	-148	-131	-88	-83	-107
11:27:42.7910	599616183812111296	-112	-105	-98	-76	-43	-26	-52	-76	-38	14	-2	-45	-19	47	79	93	134	165	148	124	107	50	-47	-141	-208	-261	-304	-323	-321	-325	-333	-330	-328	-325	-313	-313	-325	-323	-330	-321	-309	-352	-390	-354	-321	-330	-325	-304	-292	-285	-282	-268	-251	-244	-246	-227	-201
11:27:43.3880	599616184249510531	-194	-186	-172	-179	-254	-357	-359	-325	-357	-352	-304	-285	-287	-268	-244	-246	-282	-285	-35	587	1183	1131	242	-687	-649	-160	-184	-352	-258	-196	-225	-210	-191	-177	-143	-127	-119	-98	-83	-93	-95	-69	-35	-21	-23	-7	31	55	69	81	81	98	136	165	177	184	177
11:27:43.6610	599616184686940284	139	76	-7	-91	-155	-242	-371	-433	-393	-371	-383	-364	-333	-321	-323	-318	-292	-278	-280	-256	-230	-225	-227	-208	-201	-210	-208	-191	-186	-194	-203	-208	-203	-201	-201	-201	-198	-194	-184	-165	-174	-215	-237	-225	-232	-256	-261	-266	-273	-266	-246	-234	-225	-222	-246	-285	-170
11:27:44.1720	599616185124339519	342	1025	1191	436	-656	-893	-378	-304	-532	-431	-311	-357	-340	-275	-278	-285	-242	-198	-184	-177	-162	-162	-167	-148	-115	-81	-64	-55	-31	7	50	88	115	131	165	196	203	206	182	105	21	-50	-127	-194	-239	-266	-270	-261	-246	-234	-230	-237	-230	-210	-215	-230	-225
11:27:44.5910	599616185561738750	-208	-201	-203	-184	-167	-186	-201	-182	-172	-206	-249	-254	-266	-335	-373	-325	-297	-311	-294	-256	-246	-246	-220	-206	-215	-210	-194	-179	-179	-196	-191	-162	-162	-177	-160	-141	-148	-143	-119	-119	-139	-155	-160	-143	-139	-148	-139	-139	-174	-191	-179	-184	-201	-201	-186	-179	-191
11:27:45.0120	599616185999168507	-194	-174	-165	-179	-194	-182	-170	-189	-196	-179	-203	-292	-325	-268	-249	-275	-249	-210	-201	-220	-244	-230	-210	-208	-186	-170	-186	-186	-148	-136	-148	-143	-124	-117	-98	-71	-81	-122	-141	-141	-143	-150	-155	-146	-136	-136	-129	-107	-103	-148	-148	146	769	1215	934	26	-577
11:27:45.4570	599616186436567738	-333	-55	-196	-239	-148	-172	-184	-124	-158	-266	-273	-225	-230	-218	-179	-160	-141	-124	-117	-91	-57	-43	-31	-9	14	43	74	107	127	115	112	148	170	174	174	136	67	7	-59	-150	-218	-232	-242	-280	-311	-306	-301	-316	-323	-311	-297	-285	-282	-282	-270	-266	-266
11:27:45.8810	599616186873997495	-258	-254	-249	-244	-234	-225	-285	-383	-366	-311	-323	-321	-280	-258	-278	-289	-256	-222	-242	-258	-230	-213	-220	-208	-191	-184	-184	-177	-162	-160	-160	-148	-146	-148	-139	-124	-119	-148	-182	-167	-139	-139	-141	-117	-110	-131	-129	-98	-93	-105	-119	-122	-93	-55	-40	-47	-71
11:27:46.3010	599616187311396726	-98	-91	-79	-98	-115	-110	-105	-124	-201	-258	-210	-186	-256	-218	158	798	1164	764	-186	-687	-347	-81	-239	-273	-184	-210	-246	-220	-191	-179	-177	-174	-170	-158	-153	-174	-182	-146	-127	-136	-110	-76	-79	-67	-21	9	9	-7	16	83	122	112	127	139	93	26	-38
11:27:46.7810	599616187748811222	-136	-239	-292	-316	-330	-371	-457	-474	-407	-383	-376	-340	-325	-318	-292	-278	-273	-258	-246	-232	-218	-218	-208	-189	-191	-191	-174	-167	-170	-162	-158	-155	-155	-165	-162	-143	-141	-146	-131	-124	-134	-136	-124	-107	-95	-86	-64	-43	-45	-52	-57	-76	-107	-115	-98	-107	-162
11:27:47.1720	599616188186225718	-179	-148	-131	-127	-127	-155	-189	-19	534	1121	1088	170	-846	-836	-299	-306	-469	-359	-313	-364	-318	-268	-266	-258	-249	-234	-208	-198	-189	-170	-155	-136	-105	-76	-57	-52	-38	4	38	35	40	81	122	131	136	153	146	83	0	-71	-146	-215	-254	-278	-306	-306	-278
11:27:47.6490	599616188623624953	-263	-258	-246	-239	-246	-306	-361	-330	-333	-385	-361	-301	-294	-299	-294	-301	-306	-285	-254	-244	-249	-239	-220	-208	-208	-203	-191	-177	-165	-170	-170	-146	-143	-162	-148	-129	-139	-136	-119	-117	-127	-129	-103	-64	-71	-98	-100	-117	-155	-160	-158	-191	-218	-206	-201	-218	-225
11:27:48.0410	599616189061054706	-220	-215	-232	-273	-184	273	939	1162	541	-452	-805	-438	-301	-455	-405	-321	-364	-383	-357	-330	-289	-263	-278	-282	-244	-208	-194	-177	-148	-127	-112	-88	-52	-21	-2	23	57	91	115	141	177	196	194	186	160	91	4	-76	-139	-182	-218	-246	-249	-246	-258	-261	-242
11:27:48.5180	599616189498453941	-239	-244	-225	-218	-275	-347	-330	-278	-292	-297	-258	-239	-237	-218	-203	-203	-201	-191	-182	-179	-184	-177	-148	-150	-186	-206	-208	-215	-213	-203	-210	-206	-194	-196	-182	-165	-170	-162	-146	-155	-155	-129	-124	-139	-143	-134	-119	-127	-131	-110	-103	-122	-117	-83	-76	-95	-98
11:27:48.9380	599616189935853172	-91	-93	-100	-100	-103	-143	-213	-232	-194	-198	-246	-239	-174	-136	-143	-155	-160	-167	-177	-177	-165	-162	-165	-160	-153	-148	-148	-143	-162	-194	7	611	1191	1085	201	-611	-524	-162	-258	-366	-263	-254	-294	-246	-208	-222	-225	-213	-218	-220	-210	-191	-174	-167	-153	-131	-117
11:27:49.3910	599616190373282929	-100	-69	-55	-76	-127	-131	-69	-19	-11	21	69	67	38	38	14	-81	-177	-220	-256	-309	-345	-347	-337	-330	-328	-316	-304	-292	-261	-237	-230	-227	-230	-220	-203	-198	-191	-179	-182	-194	-184	-162	-158	-182	-213	-208	-182	-182	-182	-158	-158	-174	-167	-148	-139	-139	-139
11:27:49.8090	599616190810682164	-131	-127	-122	-112	-107	-117	-124	-117	-117	-170	-251	-256	-210	-206	-213	-189	-170	-177	-186	-189	-191	-189	-174	-165	-172	-165	-141	-129	-131	-136	-129	-117	-119	-117	-103	-100	-115	-117	-100	-81	-88	-105	-95	-76	-81	-86	-74	-74	-86	-81	-64	-71	-105	-131	-124	-131	-165
11:27:50.2610	599616191248081399	-167	-148	-177	-280	-349	-309	-268	-280	-301	-321	-170	352	956	1030	280	-699	-819	-306	-232	-405	-321	-254	-292	-270	-230	-234	-249	-249	-220	-184	-182	-179	-148	-131	-129	-112	-81	-55	-47	-40	-7	35	55	74	117	146	148	172	203	198	170	134	79	-2	-88	-155	-198
11:27:50.6810	599616191685511152	-239	-275	-282	-280	-311	-342	-316	-282	-316	-390	-407	-354	-340	-347	-311	-282	-289	-287	-263	-249	-249	-242	-218	-213	-237	-234	-196	-182	-201	-208	-186	-165	-165	-177	-189	-186	-179	-174	-162	-160	-165	-150	-136	-141	-153	-141	-119	-117	-129	-129	-115	-112	-136	-158	-148	-136	-136
11:27:51.1310	599616192122910387	-129	-134	-167	-189	-172	-186	-273	-361	-366	-340	-349	-345	-316	-333	-376	-359	-299	-270	-261	-242	-227	-237	-249	-251	-249	-237	-232	-232	-220	-206	-196	-182	-191	-249	-215	191	901	1318	905	-134	-728	-395	-124	-306	-330	-227	-256	-254	-182	-179	-196	-165	-136	-134	-117	-91	-88
11:27:51.6110	599616192560309618	-93	-69	-31	-16	-16	-4	19	33	-14	-71	-11	64	62	83	146	158	134	131	110	38	-52	-158	-258	-309	-330	-337	-333	-325	-311	-299	-299	-289	-266	-244	-227	-234	-244	-215	-186	-194	-201	-184	-167	-167	-170	-165	-162	-167	-179	-184	-191	-201	-198	-196	-198	-196	-206
11:27:52.0280	599616192997739375	-218	-218	-232	-254	-242	-222	-234	-232	-210	-208	-215	-189	-167	-230	-340	-354	-282	-270	-287	-256	-234	-242	-237	-232	-227	-215	-210	-206	-198	-208	-227	-215	-198	-203	-203	-179	-167	-170	-155	-141	-143	-143	-129	-119	-124	-131	-115	-88	-93	-98	-93	-103	-107	-81	-64	-79	-86
11:27:52.4510	599616193435138610	-86	-91	-100	-129	-150	-143	-150	-203	-275	-280	-237	-246	-282	-292	-143	354	997	1138	438	-491	-618	-177	-155	-349	-270	-189	-232	-210	-162	-177	-194	-182	-155	-134	-124	-115	-88	-69	-83	-100	-71	-38	-38	-28	14	47	59	79	112	150	182	196	218	232	198	148	95
11:27:52.8970	599616193872553102	19	-74	-148	-203	-244	-273	-280	-258	-266	-354	-421	-364	-316	-330	-316	-285	-278	-275	-268	-268	-268	-266	-254	-232	-237	-266	-273	-270	-292	-304	-292	-282	-289	-289	-275	-263	-258	-268	-273	-261	-254	-261	-246	-220	-222	-239	-220	-218	-258	-258	-222	-225	-232	-210	-191	-191	-191
11:27:53.2910	599616194309967598	-186	-177	-174	-172	-155	-148	-189	-270	-306	-266	-244	-263	-270	-261	-251	-242	-225	-215	-215	-206	-189	-179	-182	-191	-179	-153	-158	-165	-148	-146	-155	-134	-91	-74	-79	-81	-81	-95	-124	-136	-119	-110	-119	-119	-119	-129	-119	-117	-139	-14	455	1049	1157	452	-529	-738	-263
11:27:53.7420	599616194747351572	-127	-270	-201	-136	-230	-304	-268	-215	-215	-210	-174	-139	-124	-119	-110	-91	-79	-57	-33	-23	-33	-23	11	50	71	98	141	167	179	208	234	239	215	165	98	31	-52	-141	-189	-227	-268	-270	-256	-270	-273	-242	-230	-230	-218	-201	-201	-225	-239	-203	-177	-206	-242
11:27:54.1870	599616195184766068	-230	-203	-213	-222	-208	-225	-325	-419	-433	-440	-431	-407	-405	-400	-395	-378	-347	-342	-361	-361	-337	-323	-318	-311	-299	-275	-273	-289	-270	-244	-237	-213	-184	-191	-220	-237	-246	-263	-266	-246	-227	-232	-239	-218	-201	-213	-237	-254	-122	357	946	1008	289	-661	-846	-318	-122
11:27:54.6700	599616195622165303	-273	-239	-174	-244	-311	-318	-273	-242	-251	-234	-189	-165	-158	-134	-110	-105	-105	-105	-93	-64	-45	-16	35	71	100	148	186	191	210	237	232	198	136	38	-83	-184	-234	-256	-282	-318	-323	-294	-275	-275	-268	-246	-232	-230	-215	-191	-189	-196	-189	-170	-160	-162	-165
11:27:55.0600	599616196059564534	-162	-155	-158	-158	-141	-148	-174	-167	-160	-227	-301	-285	-251	-282	-306	-273	-249	-261	-261	-234	-213	-215	-222	-225	-239	-266	-270	-227	-191	-208	-230	-234	-256	-292	-294	-282	-292	-294	-270	-254	-258	-268	-268	-258	-273	-215	160	776	1032	529	-393	-810	-445	-172	-287	-287	-191
11:27:55.5410	599616196496994291	-206	-206	-170	-203	-234	-189	-162	-222	-263	-218	-179	-186	-170	-124	-103	-100	-88	-62	-31	-9	16	57	98	127	155	189	196	182	170	134	57	-35	-122	-213	-301	-337	-321	-311	-321	-325	-301	-275	-268	-261	-242	-225	-218	-215	-220	-220	-215	-213	-201	-186	-186	-182	-170
11:27:55.9010	599616196934393526	-177	-182	-172	-162	-160	-174	-182	-167	-170	-191	-184	-167	-208	-289	-304	-254	-237	-251	-237	-206	-198	-198	-186	-194	-225	-215	-179	-172	-179	-182	-172	-160	-158	-153	-127	-91	-74	-71	-79	-95	-105	-119	-167	-203	-184	-165	-165	-155	-150	-153	-143	-134	-155	-134	201	826	1155
11:27:56.4070	599616197371792761	740	-206	-836	-625	-285	-333	-373	-289	-278	-304	-287	-268	-270	-266	-251	-244	-222	-191	-182	-184	-167	-141	-127	-112	-79	-40	-31	-19	21	62	83	110	150	172	182	201	210	174	93	2	-81	-167	-232	-266	-280	-292	-299	-287	-270	-263	-261	-263	-289	-289	-246	-220	-222
11:27:56.8010	599616197809191992	-230	-218	-186	-167	-172	-186	-201	-213	-273	-342	-304	-249	-280	-289	-251	-249	-261	-234	-196	-182	-186	-194	-191	-174	-153	-129	-100	-98	-119	-107	-103	-148	-170	-136	-124	-153	-160	-148	-158	-162	-155	-155	-170	-100	285	946	1282	752	-345	-853	-390	-93	-266	-234	-110	-165	-189
11:27:57.3070	599616198246606488	-134	-122	-131	-143	-170	-186	-227	-268	-230	-194	-196	-155	-117	-117	-100	-76	-50	2	45	83	134	150	153	194	225	215	186	115	7	-81	-158	-234	-270	-289	-318	-309	-287	-301	-304	-297	-299	-299	-270	-244	-261	-292	-297	-278	-261	-275	-309	-297	-268	-273	-273	-251	-251
11:27:57.6700	599616198684020984	-258	-239	-215	-206	-220	-227	-215	-258	-345	-347	-289	-304	-349	-309	-249	-249	-258	-249	-244	-251	-263	-258	-227	-215	-232	-220	-189	-179	-177	-196	-232	-134	330	1004	1241	625	-421	-798	-321	-95	-273	-242	-150	-191	-182	-127	-131	-141	-115	-86	-79	-79	-83	-79	-74	-71	-43
11:27:58.1210	599616199121420219	-9	2	11	33	55	31	-16	21	95	110	119	155	182	174	143	83	-9	-115	-198	-246	-323	-402	-393	-349	-354	-359	-349	-357	-364	-340	-309	-282	-275	-287	-275	-237	-232	-254	-261	-246	-234	-234	-230	-232	-261	-292	-297	-289	-287	-287	-285	-280	-282	-273	-254	-246	-256
11:27:58.5970	599616199558819454	-239	-203	-210	-242	-230	-220	-268	-354	-402	-361	-328	-352	-345	-309	-297	-292	-266	-268	-309	-206	266	898	1078	462	-503	-800	-342	-148	-321	-335	-282	-289	-254	-213	-222	-234	-206	-165	-150	-141	-110	-93	-93	-76	-43	-23	-16	-2	23	55	67	86	139	182	191	213	246
11:27:59.0180	599616199996233946	258	246	213	136	4	-162	-268	-289	-316	-352	-357	-333	-321	-321	-301	-273	-263	-254	-225	-203	-206	-206	-194	-177	-170	-170	-165	-162	-162	-153	-141	-139	-155	-177	-177	-167	-179	-206	-225	-237	-251	-285	-292	-285	-304	-313	-289	-285	-285	-258	-234	-232	-213	-191	-198	-215	-222
11:27:59.4110	599616200433648442	-227	-230	-232	-222	-203	-201	-263	-335	-306	-261	-316	-352	-110	472	997	910	88	-750	-714	-263	-258	-381	-287	-246	-278	-239	-206	-203	-179	-162	-165	-148	-117	-105	-95	-81	-71	-57	-31	-4	23	43	55	86	131	160	153	150	172	162	153	174	153	62	-28	-98	-160
11:27:59.8900	599616200871047677	-215	-251	-275	-304	-371	-421	-371	-328	-347	-328	-278	-266	-268	-244	-227	-234	-237	-218	-198	-196	-206	-206	-186	-184	-201	-198	-184	-189	-189	-172	-160	-165	-170	-162	-146	-141	-141	-129	-119	-134	-136	-110	-93	-105	-110	-103	-107	-127	-153	-172	-189	-210	-218	-206	-225	-278	-299
11:28:00.2810	599616201308446908	-282	-280	-311	-309	-45	544	1001	795	-76	-862	-771	-337	-345	-450	-347	-289	-301	-275	-254	-244	-215	-196	-186	-165	-146	-141	-124	-93	-69	-64	-67	-64	-50	-23	4	33	59	86	124	165	189	186	179	177	153	83	-7	-88	-160	-218	-237	-232	-242	-263	-251	-222	-218
11:28:00.8160	599616201745861404	-222	-201	-186	-244	-333	-333	-309	-345	-349	-304	-287	-289	-282	-263	-249	-254	-254	-234	-215	-215	-213	-203	-194	-186	-179	-165	-158	-172	-179	-162	-155	-162	-174	-184	-179	-172	-165	-162	-196	-237	-230	-213	-225	-210	-184	-196	-213	-220	-222	-230	-246	-256	-242	-218	-210	-213	-206
11:28:01.1510	599616202183275900	-196	-208	-227	-81	407	965	1006	321	-546	-752	-385	-263	-390	-369	-309	-342	-347	-313	-304	-285	-239	-215	-201	-184	-172	-158	-129	-105	-88	-76	-57	-28	-2	11	38	67	83	112	155	186	191	186	186	179	141	57	-38	-107	-172	-220	-227	-227	-239	-237	-225	-215	-213
11:28:01.6310	599616202620675135	-201	-179	-201	-292	-335	-275	-249	-268	-254	-232	-234	-232	-215	-196	-198	-203	-191	-174	-174	-186	-210	-237	-232	-227	-251	-268	-261	-270	-275	-270	-280	-280	-268	-266	-263	-251	-237	-230	-232	-227	-210	-198	-191	-170	-148	-150	-155	-146	-143	-160	-179	-184	-182	-198	-198	-172	-162
11:28:02.0510	599616203058074366	-172	-167	-167	-177	-19	488	1064	1100	297	-721	-826	-282	-215	-388	-280	-201	-251	-230	-182	-184	-172	-141	-127	-119	-110	-95	-74	-64	-67	-50	-23	-14	-26	-26	16	50	52	86	143	170	170	186	206	203	179	141	79	-14	-105	-162	-196	-227	-244	-246	-251	-254	-242
11:28:02.5010	599616203495488862	-215	-198	-213	-234	-218	-206	-282	-371	-352	-318	-335	-328	-292	-287	-309	-313	-299	-311	-330	-311	-292	-301	-304	-280	-266	-268	-268	-256	-244	-237	-237	-225	-210	-208	-208	-215	-206	-177	-162	-153	-139	-162	-208	-213	-208	-232	-222	-186	-184	-191	-182	-172	-162	-167	-198	-139	239
11:28:02.9470	599616203932903358	872	1191	745	-227	-733	-352	-62	-273	-378	-316	-311	-316	-282	-251	-230	-208	-196	-177	-158	-146	-127	-100	-79	-69	-64	-40	-7	7	23	59	88	107	139	177	203	208	203	213	203	153	83	-2	-115	-201	-225	-234	-254	-268	-263	-249	-268	-299	-278	-249	-256	-249	-222
11:28:03.3710	599616204370302593	-218	-237	-251	-244	-232	-273	-366	-395	-361	-371	-397	-376	-352	-357	-354	-340	-333	-337	-330	-306	-297	-306	-294	-263	-254	-258	-254	-239	-225	-220	-213	-196	-194	-201	-186	-167	-167	-165	-150	-146	-150	-146	-131	-124	-129	-131	-115	-100	-103	-115	-127	-122	-100	-67	-38	-33	-67
11:28:03.7910	599616204807701828	-100	-112	-143	-179	-174	-155	-170	-242	-297	-258	-213	-234	-266	-256	-76	431	997	1011	263	-584	-606	-148	-136	-313	-249	-196	-227	-206	-162	-158	-158	-136	-110	-93	-86	-81	-71	-57	-38	-23	-7	9	14	28	57	81	98	122	143	155	158	167	189	186	155	112	40
11:28:04.2710	599616205245101063	-62	-148	-222	-278	-330	-433	-493	-440	-409	-448	-460	-440	-419	-400	-385	-366	-349	-337	-316	-297	-297	-301	-282	-261	-256	-251	-242	-239	-242	-232	-220	-230	-254	-251	-222	-206	-208	-201	-184	-182	-184	-172	-155	-150	-150	-148	-134	-131	-136	-129	-117	-124	-129	-115	-95	-93	-100
11:28:04.6610	599616205682500294	-107	-100	-91	-91	-83	-81	-105	-117	-98	-86	-143	-227	-232	-182	-170	-162	-122	-105	-131	-174	-196	-189	-191	-191	-172	-160	-162	-155	-136	-131	-162	-179	4	541	1104	1078	294	-572	-603	-146	-112	-268	-198	-136	-160	-148	-124	-119	-110	-112	-122	-103	-76	-79	-88	-81	-74
11:28:05.1380	599616206119914790	-79	-83	-79	-71	-117	-179	-143	-69	-64	-52	7	52	59	64	62	43	14	-33	-105	-182	-251	-294	-301	-313	-335	-321	-292	-294	-318	-323	-297	-275	-282	-278	-251	-234	-234	-227	-218	-218	-210	-186	-182	-186	-189	-198	-218	-218	-206	-191	-189	-194	-184	-162	-158	-167	-160
11:28:05.5310	599616206557329286	-150	-150	-150	-139	-124	-150	-237	-289	-237	-210	-237	-227	-201	-196	-196	-182	-167	-165	-167	-158	-155	-170	-160	-127	-115	-117	-105	-100	-112	-139	-155	-141	-124	-129	-134	-122	-119	-143	-170	-177	-167	52	654	1217	1088	167	-687	-560	-95	-179	-325	-203	-174	-242	-218	-177	-198
11:28:06.0110	599616206994728521	-208	-182	-189	-251	-321	-321	-261	-242	-249	-218	-177	-162	-143	-103	-71	-57	-28	23	64	81	93	117	136	131	105	67	-2	-93	-177	-242	-278	-294	-306	-301	-287	-280	-263	-242	-234	-239	-225	-201	-189	-186	-189	-213	-246	-244	-213	-198	-206	-208	-191	-177	-179	-177	-170
11:28:06.4010	599616207432127756	-167	-165	-165	-177	-184	-186	-189	-177	-167	-237	-313	-285	-242	-258	-249	-208	-198	-208	-203	-184	-172	-170	-160	-148	-150	-153	-139	-122	-122	-131	-127	-110	-105	-107	-105	-119	-146	-143	-117	-105	-112	-117	-110	-105	-119	-117	-71	-43	-71	-107	-119	-129	-158	-206	-254	-273	-258
11:28:06.8810	599616207869526991	-251	-244	-249	-323	-388	-381	-349	-119	479	989	793	-95	-786	-587	-215	-321	-402	-270	-258	-292	-242	-213	-220	-194	-162	-150	-139	-134	-115	-83	-69	-64	-47	-26	-14	7	38	64	74	91	134	170	179	186	206	218	213	198	165	98	4	-74	-124	-167	-203	-208	-203
11:28:07.3270	599616208306926222	-218	-220	-196	-177	-174	-198	-225	-208	-230	-318	-335	-280	-278	-285	-246	-225	-230	-232	-234	-230	-222	-222	-208	-196	-201	-196	-177	-172	-172	-165	-153	-146	-148	-143	-127	-127	-146	-141	-112	-107	-119	-115	-105	-110	-107	-93	-81	-93	-112	-119	-122	-124	-115	-103	-107	-117	-110
11:28:07.7510	599616208744340718	-88	-86	-112	-139	-122	-112	-179	-266	-261	-242	-270	-278	-263	-273	-304	-318	-292	-266	-268	-261	-246	-246	-244	-225	-222	-246	-261	-246	-213	-179	-150	-131	-141	-167	-174	-162	-167	-177	-174	-167	-158	-148	-143	-131	-131	-170	-136	232	901	1301	934	-88	-769	-443	-67	-215	-270
11:28:08.1710	599616209181755214	-174	-194	-194	-139	-136	-148	-129	-134	-208	-249	-191	-153	-172	-148	-107	-93	-79	-52	-28	-7	16	55	81	67	74	131	170	174	184	186	162	112	31	-59	-124	-196	-263	-285	-282	-294	-294	-275	-263	-258	-239	-210	-198	-208	-206	-179	-165	-170	-158	-141	-155	-165	-150
11:28:08.6210	599616209619154449	-136	-139	-150	-153	-141	-170	-273	-323	-282	-270	-282	-256	-230	-237	-242	-230	-215	-210	-206	-191	-196	-222	-222	-198	-189	-191	-196	-213	-225	-227	-237	-251	-285	-321	-301	-268	-263	-263	-263	-280	-285	-268	-254	-239	-237	-242	-220	-174	-143	-139	-146	-162	-170	-170	-179	-184	-182
11:28:09.0410	599616210056553684	-182	-170	-155	-158	-158	-148	-150	-230	-349	-208	366	1008	1107	383	-601	-783	-299	-206	-383	-309	-227	-261	-239	-201	-203	-184	-155	-146	-129	-110	-100	-93	-69	-38	-26	-26	-11	21	43	55	76	71	64	107	160	179	182	177	182	177	129	45	-31	-112	-201	-251	-263
11:28:09.5180	599616210493952919	-275	-292	-294	-280	-282	-345	-397	-349	-309	-323	-299	-256	-249	-251	-232	-220	-215	-215	-206	-189	-189	-208	-213	-191	-184	-191	-189	-182	-182	-189	-194	-184	-184	-194	-184	-179	-196	-203	-203	-215	-230	-222	-203	-196	-213	-215	-191	-179	-189	-194	-213	-239	-237	-232	-239	-225	-215
11:28:09.9110	599616210931352154	-220	-203	-182	-179	-165	-155	-206	-292	-309	-251	-234	-254	-244	-220	-213	-206	-186	-170	-179	-172	-136	-129	-143	-134	-112	-103	-107	-112	-112	-124	-139	-129	-112	-110	-115	-119	-110	-91	-95	-100	-86	-83	-100	-86	-52	-43	-35	-33	-47	-69	-83	-88	-81	-79	-95	-93	-69
11:28:10.3610	599616211368751389	-59	-81	-146	-196	-69	402	1013	1116	333	-702	-817	-280	-215	-390	-287	-208	-268	-249	-186	-177	-182	-167	-139	-117	-117	-107	-83	-71	-71	-47	-9	2	-2	19	55	71	83	117	155	184	215	249	268	270	256	222	158	67	-26	-110	-174	-239	-287	-299	-289	-285	-292
11:28:10.7810	599616211806150620	-294	-289	-294	-294	-280	-311	-407	-467	-421	-390	-436	-462	-436	-419	-414	-390	-366	-359	-364	-349	-323	-311	-309	-306	-294	-280	-270	-258	-242	-244	-254	-237	-206	-198	-203	-196	-194	-196	-182	-167	-165	-174	-182	-174	-158	-148	-139	-122	-127	-158	-179	-165	-153	-160	-155	-134	-127
11:28:11.2610	599616212243565116	-131	-117	-107	-170	-273	-103	539	1167	1109	218	-774	-800	-258	-194	-325	-232	-186	-237	-232	-215	-215	-196	-172	-150	-127	-98	-91	-93	-76	-47	-28	-14	7	31	55	83	119	162	198	220	256	299	321	321	306	263	177	62	-43	-131	-230	-301	-313	-313	-328	-321	-304
11:28:11.6770	599616212680979612	-299	-292	-266	-239	-227	-225	-222	-203	-186	-237	-325	-323	-268	-273	-282	-256	-242	-249	-254	-242	-230	-225	-220	-215	-215	-230	-263	-282	-263	-256	-263	-246	-225	-222	-218	-222	-246	-246	-220	-210	-215	-225	-239	-242	-249	-268	-256	-237	-237	-225	-198	-189	-196	-208	-225	-234	-232
11:28:12.1310	599616213118378847	-237	-239	-244	-318	-397	-357	-301	-323	-349	-349	-172	390	1040	1114	330	-680	-819	-294	-196	-364	-285	-215	-258	-232	-184	-179	-177	-162	-143	-119	-105	-107	-119	-119	-107	-112	-107	-67	-40	-31	14	62	83	117	167	196	213	234	266	280	244	174	93	-4	-100	-170	-218
11:28:12.5510	599616213555778082	-263	-285	-273	-261	-258	-261	-254	-249	-285	-366	-385	-323	-294	-311	-285	-242	-237	-246	-232	-210	-210	-215	-198	-194	-208	-206	-179	-165	-172	-179	-172	-162	-160	-162	-146	-143	-160	-155	-139	-155	-182	-177	-167	-186	-215	-206	-174	-172	-186	-182	-165	-155	-150	-150	-158	-177	-179
11:28:13.0010	599616213993177317	-167	-158	-165	-177	-179	-191	-249	-342	-361	-316	-313	-321	-292	-278	-294	-301	-280	-261	-258	-249	-232	-232	-232	-215	-198	-196	-203	-201	-186	-177	-174	-158	-146	-150	-155	-148	-134	-127	-134	-131	-110	-103	-115	-110	-95	-93	-103	-112	-91	-43	-38	-74	-127	-158	-146	-146	-153
11:28:13.4210	599616214430576548	-153	-150	-136	-119	-124	-134	-127	-155	-249	-162	385	1008	1023	270	-642	-759	-266	-162	-313	-234	-174	-232	-225	-182	-189	-177	-141	-122	-117	-112	-103	-76	-52	-33	-4	11	11	31	59	71	91	127	150	172	213	258	285	287	292	306	297	237	150	50	-67	-155	-201
11:28:13.8970	599616214867975787	-227	-249	-270	-306	-328	-337	-397	-438	-388	-357	-364	-337	-294	-285	-294	-280	-249	-239	-244	-230	-213	-220	-225	-210	-201	-206	-213	-208	-194	-203	-213	-189	-174	-191	-186	-162	-167	-172	-162	-160	-160	-158	-150	-139	-155	-177	-150	-119	-124	-143	-165	-148	-110	-117	-146	-150	-179
11:28:14.2900	599616215305375018	-218	-218	-213	-222	-232	-246	-242	-275	-381	-424	-297	100	750	1145	733	-364	-1056	-680	-275	-421	-450	-299	-306	-342	-289	-256	-256	-234	-203	-186	-177	-162	-143	-119	-95	-93	-105	-88	-57	-35	-7	35	64	88	139	196	232	234	249	273	254	194	124	26	-93	-182	-246
11:28:14.7400	599616215742789514	-289	-304	-309	-321	-323	-366	-433	-400	-335	-345	-337	-299	-304	-313	-292	-275	-266	-251	-244	-234	-225	-244	-275	-266	-242	-239	-234	-220	-213	-208	-191	-174	-182	-191	-174	-153	-153	-153	-146	-143	-141	-136	-129	-146	-170	-153	-117	-100	-103	-105	-127	-170	-189	-184	-172	-167	-184
11:28:15.1610	599616216180204010	-206	-201	-196	-220	-230	-249	-287	-105	515	1155	1047	47	-889	-764	-278	-345	-462	-335	-325	-378	-311	-258	-273	-266	-227	-203	-194	-182	-150	-131	-148	-158	-119	-88	-76	-57	-28	-2	9	35	105	153	170	220	268	273	261	222	136	19	-110	-208	-266	-323	-359	-335	-321
11:28:15.6100	599616216617603245	-340	-330	-292	-282	-330	-412	-414	-345	-335	-347	-311	-282	-280	-278	-258	-239	-230	-222	-210	-201	-203	-206	-196	-191	-206	-220	-222	-220	-210	-189	-174	-174	-182	-182	-162	-155	-165	-148	-134	-165	-194	-172	-143	-141	-153	-153	-127	-110	-117	-122	-105	-95	-103	-100	-74	-67	-86
11:28:16.0870	599616217055002476	-88	-83	-93	-110	-115	-146	-246	-340	-330	-294	-294	-297	-280	-258	-251	-254	-266	-299	-143	426	1061	1104	345	-579	-709	-263	-196	-345	-256	-194	-254	-230	-172	-196	-213	-174	-160	-167	-143	-110	-95	-98	-93	-59	-23	-19	-11	14	26	21	43	88	124	155	194	234	258
11:28:16.5410	599616217492416972	249	234	194	88	-71	-210	-268	-313	-397	-436	-397	-378	-385	-345	-292	-292	-301	-268	-225	-225	-237	-222	-206	-215	-227	-194	-165	-206	-213	-148	-122	-153	-172	-165	-150	-127	-117	-129	-136	-153	-167	-155	-139	-139	-136	-127	-119	-112	-98	-76	-62	-71	-81	-83	-115	-129	-115
11:28:16.9010	599616217929831468	-141	-184	-167	-150	-162	-170	-150	-131	-155	-191	-67	460	1167	1334	565	-642	-1040	-476	-232	-409	-340	-230	-297	-313	-222	-165	-165	-155	-153	-165	-134	-98	-158	-234	-170	-59	-91	-127	-19	64	52	64	95	124	172	198	206	258	263	165	150	208	91	-131	-227	-258	-349
11:28:17.3810	599616218367230703	-421	-421	-419	-464	-560	-563	-460	-431	-460	-460	-474	-481	-455	-421	-414	-419	-388	-347	-349	-359	-333	-309	-325	-337	-306	-270	-270	-282	-263	-234	-215	-210	-206	-174	-141	-139	-143	-117	-110	-148	-172	-160	-158	-158	-139	-146	-165	-148	-115	-98	-117	-160	-146	129	766	1334	1212
11:28:17.7710	599616218804629938	234	-774	-697	-122	-136	-304	-196	-146	-213	-266	-280	-251	-232	-230	-191	-148	-141	-150	-158	-160	-139	-117	-100	-64	-28	-7	28	71	105	139	170	208	239	251	258	244	167	69	-7	-81	-182	-268	-299	-301	-306	-309	-294	-289	-289	-266	-239	-234	-225	-210	-196	-189	-206
11:28:18.2510	599616219242029173	-213	-191	-222	-328	-378	-352	-354	-376	-369	-364	-364	-349	-330	-316	-313	-313	-297	-275	-275	-285	-282	-261	-244	-239	-227	-213	-237	-266	-246	-222	-230	-230	-213	-210	-208	-165	-143	-174	-191	-172	-170	-179	-186	-186	-182	-179	-174	-162	-150	-139	-141	-162	-194	-150	227	985	1526
11:28:18.6710	599616219679428404	1191	57	-735	-421	-45	-254	-323	-184	-261	-373	-294	-222	-249	-249	-210	-184	-177	-167	-148	-119	-93	-81	-59	-23	-14	-4	43	81	98	131	160	184	225	266	270	237	194	189	172	52	-86	-153	-208	-273	-318	-340	-325	-304	-309	-306	-285	-261	-254	-256	-237	-206	-201
11:28:19.1210	599616220116858161	-210	-218	-230	-246	-261	-297	-376	-438	-405	-366	-369	-357	-330	-321	-325	-311	-273	-258	-263	-266	-270	-270	-251	-239	-249	-246	-234	-218	-186	-170	-167	-153	-143	-150	-150	-131	-127	-139	-148	-136	-119	-112	-100	-86	-117	-177	-174	-148	-162	-158	-139	-150	-160	-148	-141	-127	-117
11:28:19.5400	599616220554257396	-119	-112	-100	-103	-103	-93	-86	-119	-208	-234	-179	-174	-186	-124	-79	-107	-124	-110	-107	-112	-115	-117	-115	-119	-124	-105	-107	-131	-131	-167	-225	-16	618	1270	1318	527	-493	-642	-129	-81	-278	-184	-131	-198	-148	-76	-95	-112	-95	-76	-59	-43	-26	-38	-79	-74	-26
11:28:20.0180	599616220991656631	-4	-9	-11	4	43	26	-50	-43	38	64	86	150	184	174	155	119	43	-62	-150	-218	-285	-349	-383	-383	-383	-385	-376	-354	-335	-318	-292	-273	-287	-306	-292	-263	-261	-261	-251	-246	-239	-234	-225	-206	-208	-218	-196	-177	-182	-184	-177	-170	-177	-177	-158	-153	-170
11:28:20.4360	599616221429055862	-167	-141	-122	-119	-139	-184	-225	-275	-352	-347	-278	-268	-270	-227	-210	-237	-237	-210	-213	-237	-222	-182	-167	-186	-203	-182	-153	-182	-198	45	697	1334	1282	342	-680	-668	-127	-131	-311	-222	-179	-232	-208	-170	-170	-150	-124	-119	-112	-86	-71	-67	-26	-2	-21	-21	16
11:28:20.8610	599616221866470358	23	11	35	95	115	40	-9	64	112	81	107	146	98	7	-119	-261	-359	-409	-438	-436	-438	-469	-452	-407	-405	-393	-345	-340	-347	-297	-273	-306	-292	-232	-198	-210	-220	-196	-210	-242	-210	-172	-165	-153	-139	-146	-165	-174	-170	-177	-182	-155	-131	-127	-119	-122	-131
11:28:21.2810	599616222303884854	-131	-124	-115	-112	-107	-98	-150	-242	-230	-150	-148	-170	-150	-146	-162	-158	-148	-160	-165	-153	-143	-141	-146	-170	-174	-198	-213	127	920	1517	1217	107	-711	-455	-74	-251	-316	-155	-170	-234	-184	-162	-194	-160	-100	-103	-122	-112	-98	-88	-98	-122	-103	-67	-71	-76	-38
11:28:21.7310	599616222741284089	7	31	59	93	64	11	50	119	139	131	103	38	-67	-177	-261	-328	-369	-345	-316	-345	-366	-337	-309	-304	-301	-280	-249	-244	-237	-222	-234	-261	-282	-289	-258	-246	-254	-220	-189	-218	-227	-186	-177	-189	-182	-170	-174	-160	-136	-134	-143	-139	-134	-131	-124	-122	-122
11:28:22.1520	599616223178683324	-110	-110	-122	-107	-91	-155	-270	-285	-198	-170	-177	-153	-146	-167	-170	-162	-172	-186	-184	-162	-150	-153	-148	-131	-131	-146	-174	-124	258	958	1390	992	-59	-695	-359	-59	-258	-299	-167	-179	-234	-242	-244	-234	-208	-194	-191	-160	-141	-165	-165	-141	-150	-155	-115	-76	-74
11:28:22.6570	599616223616082559	-55	-7	21	-14	-69	-43	38	71	74	95	112	88	11	-88	-177	-256	-316	-335	-345	-361	-364	-345	-325	-321	-309	-280	-270	-270	-254	-237	-232	-230	-225	-218	-208	-201	-194	-182	-179	-189	-179	-155	-148	-158	-174	-189	-186	-174	-167	-186	-225	-222	-191	-182	-179	-158	-150
11:28:23.0220	599616224053481794	-158	-155	-146	-129	-124	-146	-148	-115	-122	-208	-270	-234	-210	-230	-218	-186	-177	-179	-177	-174	-170	-153	-134	-119	-115	-127	-139	-134	-139	-150	-148	-136	-134	-131	-117	-103	-122	-174	-134	251	965	1435	1097	14	-759	-440	-31	-203	-289	-162	-155	-191	-179	-172	-162	-136	-124
11:28:23.5020	599616224490881029	-122	-131	-177	-251	-278	-220	-174	-170	-146	-110	-83	-57	-21	28	59	81	134	186	210	220	222	210	182	129	47	-47	-160	-273	-335	-361	-385	-388	-378	-376	-373	-361	-340	-316	-316	-318	-297	-280	-280	-273	-261	-261	-261	-242	-225	-222	-230	-227	-215	-206	-203	-196	-186
11:28:23.9220	599616224928280260	-184	-186	-196	-189	-172	-174	-184	-174	-215	-328	-373	-321	-304	-309	-275	-249	-249	-246	-232	-215	-208	-201	-179	-172	-184	-177	-148	-127	-112	-98	-91	-91	-95	-119	-150	-172	-177	-162	-139	-131	-139	-134	-124	-122	-153	-189	-4	601	1291	1392	587	-486	-647	-139	-103	-309	-220
11:28:24.4020	599616225365710017	-136	-182	-170	-136	-129	-127	-172	-239	-227	-203	-213	-184	-143	-131	-127	-105	-71	-50	-57	-69	-52	-11	19	52	91	110	115	117	124	115	69	-2	-98	-203	-278	-309	-335	-361	-371	-361	-352	-352	-345	-318	-301	-306	-294	-266	-254	-254	-249	-237	-227	-227	-222	-206	-203
11:28:24.8180	599616225803109252	-218	-210	-184	-179	-189	-186	-177	-177	-189	-182	-160	-191	-280	-304	-246	-234	-254	-246	-230	-222	-210	-194	-179	-177	-186	-177	-153	-155	-184	-198	-179	-174	-186	-167	-143	-153	-158	-141	-129	-134	-127	-112	-115	-117	-107	-91	-86	-105	-129	-131	-119	-117	-115	-112	-115	-117	-107
11:28:25.2440	599616226240508487	-93	-88	-100	-105	-91	-124	-218	-246	-201	-196	-203	-172	-153	-160	-141	-110	-107	-129	-150	-146	-143	-179	-220	-234	-246	-263	-261	-244	-234	-244	-254	-256	-115	359	929	975	246	-656	-776	-297	-191	-349	-282	-201	-239	-234	-184	-172	-167	-153	-141	-124	-110	-95	-81	-79	-95
11:28:25.6940	599616226677907722	-88	-52	-26	-11	4	28	43	7	-43	-2	74	88	98	141	172	172	167	148	83	2	-67	-122	-170	-218	-244	-232	-222	-232	-215	-191	-201	-210	-186	-162	-162	-170	-160	-143	-136	-136	-129	-127	-141	-143	-129	-148	-186	-191	-174	-167	-162	-146	-131	-136	-148	-139	-117
11:28:26.1140	599616227115306957	-115	-124	-127	-122	-119	-124	-134	-127	-139	-232	-297	-246	-206	-225	-218	-203	-215	-222	-203	-189	-191	-191	-186	-191	-196	-206	-218	-218	-201	-189	-170	-146	-148	-172	-174	-174	-198	-225	-232	-230	-222	-208	-191	-184	-198	-230	-227	9	630	1253	1222	316	-680	-687	-213	-246	-402
11:28:26.5340	599616227552706192	-299	-242	-261	-227	-191	-191	-222	-289	-297	-232	-206	-210	-191	-177	-167	-136	-98	-79	-67	-38	2	35	69	107	146	182	215	249	273	273	251	220	158	57	-50	-134	-196	-237	-256	-256	-258	-268	-256	-234	-230	-239	-239	-220	-208	-201	-198	-184	-165	-174	-189	-167	-148
11:28:27.0120	599616227990105427	-155	-160	-148	-158	-220	-313	-347	-313	-297	-306	-282	-246	-244	-246	-222	-215	-220	-201	-174	-172	-191	-203	-179	-153	-150	-146	-136	-155	-182	-174	-153	-136	-129	-127	-127	-141	-172	-201	-210	-220	-220	-196	-177	-191	-191	-167	-158	-177	-210	-93	402	1097	1351	733	-407	-872	-376
11:28:27.4050	599616228427535178	-115	-304	-275	-162	-203	-230	-256	-304	-261	-215	-237	-232	-186	-174	-189	-186	-148	-124	-119	-91	-45	-14	11	40	64	98	141	167	189	215	230	244	246	203	127	31	-79	-167	-215	-232	-246	-285	-299	-278	-275	-273	-254	-244	-232	-213	-206	-196	-182	-186	-196	-196	-230
11:28:27.9140	599616228864919154	-232	-191	-198	-237	-254	-254	-220	-196	-230	-301	-318	-313	-299	-203	-143	-155	-110	-35	-38	-119	-129	-76	-115	-186	-201	-174	-160	-182	-172	-112	-91	-131	-143	-134	-194	-220	64	728	1279	1097	86	-874	-733	-198	-280	-428	-280	-249	-292	-206	-162	-210	-215	-170	-134	-148	-150
11:28:28.2740	599616229302303128	-110	-122	-136	-62	-4	-43	-64	4	55	55	76	103	124	69	0	100	184	112	100	153	67	-95	-186	-246	-304	-337	-345	-333	-297	-297	-333	-369	-395	-357	-278	-254	-280	-278	-234	-210	-213	-244	-292	-270	-198	-184	-215	-232	-225	-206	-172	-148	-167	-203	-206	-186	-186
11:28:28.7550	599616229739732885	-182	-136	-119	-215	-292	-239	-206	-246	-254	-230	-225	-225	-198	-158	-162	-179	-167	-170	-203	-222	-64	510	1258	1481	757	-393	-726	-237	-119	-321	-234	-146	-208	-184	-124	-136	-146	-136	-139	-117	-95	-127	-131	-69	-40	-55	-45	-21	-31	-40	11	93	119	136	172	194	206
11:28:29.1760	599616230177132120	225	232	227	203	158	95	-23	-148	-227	-340	-409	-378	-373	-385	-342	-294	-294	-287	-251	-230	-234	-234	-239	-246	-246	-234	-218	-220	-237	-256	-275	-273	-256	-254	-244	-230	-251	-258	-208	-196	-234	-230	-213	-213	-191	-172	-179	-184	-174	-170	-194	-215	-191	-150	-131	-124	-146
11:28:29.6260	599616230614531355	-170	-162	-160	-186	-186	-167	-206	-282	-289	-249	-242	-249	-263	-198	206	920	1358	951	-117	-716	-364	-107	-306	-306	-177	-208	-230	-177	-158	-146	-122	-127	-131	-110	-91	-79	-59	-55	-50	-23	2	9	26	64	88	103	131	174	213	239	254	258	261	249	213	150	52
11:28:30.0460	599616231051930586	-67	-170	-234	-254	-273	-292	-304	-335	-393	-431	-395	-354	-359	-342	-299	-287	-289	-273	-251	-246	-254	-239	-213	-213	-232	-225	-196	-189	-203	-198	-182	-182	-184	-167	-158	-177	-203	-203	-196	-213	-215	-203	-227	-251	-244	-244	-244	-244	-249	-244	-230	-227	-230	-230	-232	-230	-218
11:28:30.4960	599616231489345082	-210	-210	-215	-215	-201	-225	-316	-354	-299	-273	-299	-316	-299	-287	-289	-273	-254	-249	-244	-225	-201	-201	-213	-189	-167	-174	-172	-160	-155	-150	-141	-119	-117	-131	-124	-112	-129	-129	-88	-55	-52	-64	-81	-79	-69	-91	-122	-124	-115	-100	-98	-105	-98	-98	-134	-110	201
11:28:30.9170	599616231926759578	829	1298	1035	86	-579	-328	-28	-249	-393	-270	-225	-268	-254	-208	-191	-179	-148	-124	-124	-122	-148	-174	-143	-117	-117	-86	-47	-33	-16	14	35	55	95	139	158	167	184	208	208	177	150	117	35	-57	-136	-208	-268	-318	-342	-335	-333	-342	-340	-349	-357	-335	-306
11:28:31.3920	599616232364158813	-301	-299	-294	-287	-289	-349	-424	-393	-345	-361	-352	-316	-316	-321	-299	-275	-266	-263	-254	-232	-227	-239	-230	-198	-186	-186	-179	-182	-218	-246	-234	-203	-208	-218	-189	-165	-167	-165	-155	-148	-141	-139	-124	-98	-88	-86	-64	-57	-86	-103	-105	-122	-129	-110	-98	-98	-103
11:28:31.7870	599616232801558048	-103	-91	-95	-153	-146	177	800	1191	848	-91	-730	-488	-158	-278	-328	-220	-220	-237	-198	-182	-167	-136	-119	-119	-119	-124	-112	-91	-69	-52	-64	-81	-57	-26	-31	-40	-23	-16	-21	23	81	98	103	127	143	124	67	-19	-107	-184	-249	-289	-304	-325	-335	-316	-292
11:28:32.2370	599616233238972540	-287	-282	-266	-256	-299	-376	-376	-318	-313	-335	-321	-304	-299	-287	-268	-258	-261	-251	-222	-201	-213	-220	-194	-174	-182	-174	-155	-158	-170	-162	-143	-134	-146	-150	-134	-124	-129	-119	-107	-115	-122	-115	-110	-103	-83	-91	-136	-162	-158	-162	-172	-170	-165	-150	-129	-131	-143
11:28:32.6570	599616233676387036	-136	-127	-160	-146	186	836	1231	843	-165	-836	-560	-196	-323	-378	-270	-289	-321	-294	-316	-321	-266	-242	-251	-232	-201	-186	-179	-155	-127	-117	-110	-81	-43	-21	2	33	62	95	129	170	206	213	208	215	208	141	43	-43	-122	-206	-256	-261	-263	-289	-325	-335	-309
11:28:33.1370	599616234113786271	-285	-278	-263	-275	-349	-390	-337	-306	-321	-306	-275	-263	-256	-242	-234	-234	-230	-213	-194	-189	-194	-184	-167	-160	-165	-170	-165	-170	-167	-143	-127	-131	-134	-122	-122	-124	-112	-93	-95	-112	-110	-88	-81	-86	-88	-91	-91	-88	-76	-45	-33	-43	-43	-38	-57	-88	-115
11:28:33.5530	599616234551185506	-136	-136	-146	-155	-146	-155	-189	-189	-206	-309	-213	364	997	956	112	-728	-685	-280	-337	-452	-330	-301	-340	-292	-261	-266	-234	-198	-196	-191	-177	-165	-167	-155	-119	-95	-91	-74	-43	-14	9	33	62	105	143	167	198	230	237	232	230	196	115	16	-69	-131	-182
11:28:34.0080	599616234988584741	-215	-225	-237	-316	-400	-371	-328	-357	-357	-309	-287	-285	-270	-249	-270	-313	-297	-254	-244	-242	-227	-222	-222	-213	-194	-179	-182	-186	-172	-150	-146	-146	-141	-129	-127	-124	-112	-98	-110	-134	-129	-107	-103	-103	-98	-98	-98	-93	-83	-76	-83	-91	-81	-67	-67	-69	-64
11:28:34.3980	599616235425983972	-67	-74	-69	-57	-57	-76	-83	-69	-93	-182	-232	-191	-165	-182	-182	-170	-162	-165	-160	-141	-134	-134	-139	-167	-194	-155	-98	-76	-95	-122	-127	-119	-129	-143	-131	-122	-131	-131	-112	-105	-110	-127	-165	-76	354	989	1227	632	-357	-668	-251	-146	-352	-318	-249	-294	-287
11:28:34.8780	599616235863398468	-234	-222	-261	-337	-347	-280	-261	-268	-230	-196	-186	-167	-141	-112	-95	-86	-62	-23	2	33	71	81	88	127	165	182	182	170	139	79	-16	-131	-234	-289	-311	-316	-309	-304	-309	-299	-275	-263	-263	-242	-225	-230	-225	-203	-189	-184	-184	-179	-165	-172	-179	-158	-153
11:28:35.2980	599616236300812964	-170	-165	-141	-131	-141	-148	-143	-148	-208	-278	-254	-220	-246	-237	-196	-189	-196	-191	-177	-165	-170	-170	-153	-148	-162	-158	-131	-124	-141	-153	-146	-131	-134	-129	-107	-103	-117	-112	-95	-95	-119	-139	-129	-129	-134	-117	-105	-117	-122	-105	-105	-129	-129	-117	-129	-134	-127
11:28:35.7740	599616236738212199	-139	-155	-170	-203	-222	-225	-280	-313	-258	-232	-263	-266	-249	-251	-273	-275	-244	-230	-237	-218	-201	-213	-220	-227	-174	194	874	1275	869	-174	-788	-409	-83	-275	-304	-186	-222	-244	-189	-177	-172	-141	-127	-117	-107	-105	-88	-52	-57	-95	-93	-47	-21	-11	11	45	71
11:28:36.1680	599616237175611434	88	124	174	206	225	244	246	206	122	57	19	-79	-191	-242	-278	-325	-347	-340	-335	-335	-321	-289	-268	-268	-261	-234	-222	-225	-215	-203	-201	-198	-186	-170	-162	-172	-179	-170	-160	-162	-160	-158	-172	-182	-165	-148	-153	-160	-155	-162	-179	-174	-155	-153	-167	-179	-179
11:28:36.6190	599616237613010669	-196	-246	-273	-256	-251	-316	-388	-366	-328	-342	-333	-292	-280	-285	-275	-256	-244	-239	-232	-203	-184	-194	-186	-167	-182	-203	-203	-191	-189	-189	-174	-155	-148	-155	-162	-196	-179	167	905	1461	1164	69	-697	-402	-52	-246	-301	-162	-184	-227	-189	-177	-182	-150	-119	-107	-105
11:28:37.0390	599616238050409904	-98	-71	-45	-43	-40	-21	-21	-74	-122	-107	-81	-59	-11	47	93	129	170	201	203	196	194	155	59	-55	-153	-234	-294	-321	-328	-330	-325	-318	-301	-285	-275	-263	-244	-232	-230	-218	-198	-196	-206	-201	-179	-172	-179	-184	-179	-174	-170	-155	-146	-167	-194	-196	-198
11:28:37.5190	599616238487809139	-222	-237	-230	-222	-249	-325	-366	-335	-335	-359	-333	-301	-306	-304	-287	-285	-285	-280	-301	-313	-289	-275	-273	-254	-244	-244	-230	-222	-222	-208	-182	-174	-196	-203	-177	-167	-182	-162	-127	-131	-158	-146	-117	-105	-122	-129	-107	-100	-107	-105	-93	-93	-95	-83	-74	-76	-81
11:28:37.9350	599616238925208370	-74	-62	-64	-79	-71	-52	-38	-19	-14	-38	-117	-220	-222	-177	-194	-206	-172	-158	-170	-160	-131	-119	-141	-179	-100	330	968	1205	654	-311	-695	-285	-71	-249	-244	-146	-165	-170	-146	-167	-165	-134	-129	-117	-83	-74	-83	-71	-45	-21	-4	16	35	35	40	74	112
11:28:38.3590	599616239362622866	141	165	179	184	150	105	139	182	150	112	71	-11	-93	-150	-222	-304	-335	-318	-299	-299	-301	-289	-273	-261	-244	-218	-194	-194	-203	-184	-148	-160	-208	-208	-170	-174	-215	-230	-222	-246	-261	-244	-251	-270	-263	-246	-258	-282	-268	-237	-239	-254	-234	-208	-206	-213	-203
11:28:38.7790	599616239800006840	-189	-186	-184	-170	-155	-189	-285	-321	-258	-237	-251	-234	-218	-213	-198	-186	-177	-167	-177	-172	-146	-143	-160	-150	-136	-134	-134	-129	-117	-117	-122	-110	-95	-98	-93	-86	-91	-91	-79	-71	-71	-76	-81	-71	-83	-127	-134	-117	-112	-95	-67	-50	-40	-50	-91	-112	-107
11:28:39.2590	599616240237421336	-115	-110	-103	-160	-254	-254	-196	-196	-239	-232	31	654	1203	1073	153	-730	-618	-122	-158	-292	-194	-158	-184	-148	-127	-124	-110	-103	-100	-100	-95	-88	-79	-64	-50	-38	-7	26	35	45	71	100	129	170	208	237	258	285	313	323	309	273	198	76	-47	-122	-186
11:28:39.6490	599616240674805310	-256	-297	-301	-304	-325	-337	-323	-292	-289	-361	-417	-364	-333	-366	-347	-304	-304	-313	-304	-294	-304	-318	-321	-316	-323	-330	-311	-287	-289	-294	-282	-270	-270	-261	-239	-246	-275	-280	-249	-227	-230	-230	-220	-206	-196	-189	-179	-177	-186	-172	-150	-153	-155	-146	-143	-143	-131
11:28:40.1560	599616241112219806	-124	-115	-136	-239	-330	-309	-266	-263	-242	-196	-182	-189	-184	-177	-189	-213	-208	-182	-167	-167	-160	-158	-153	-136	-134	-172	-110	342	1085	1445	910	-232	-793	-342	-52	-256	-246	-122	-172	-189	-122	-105	-112	-100	-100	-100	-93	-79	-55	-38	-38	-26	2	23	35	62	91
11:28:40.5500	599616241549634302	105	131	177	218	254	282	309	330	301	213	165	139	26	-129	-244	-311	-354	-393	-424	-433	-421	-400	-373	-357	-359	-354	-335	-316	-306	-299	-282	-270	-280	-282	-273	-287	-301	-287	-268	-273	-278	-273	-263	-258	-254	-242	-227	-232	-239	-227	-227	-249	-239	-215	-215	-222	-213
11:28:41.0250	599616241987033537	-189	-174	-182	-191	-177	-170	-234	-309	-287	-249	-256	-244	-213	-203	-206	-196	-177	-167	-172	-162	-148	-160	-189	-189	-162	-165	-186	-174	-148	-141	-143	-134	-124	-129	-129	-112	-98	-98	-100	-95	-88	-88	-91	-76	-64	-74	-81	-69	-62	-67	-67	-62	-59	-64	-64	-47	-47
11:28:41.4200	599616242424432772	-69	-79	-50	-16	-7	-19	-43	-88	-170	-218	-194	-186	-218	-201	-162	-162	-170	-153	-150	-196	-184	158	846	1332	1049	67	-637	-397	-67	-215	-282	-191	-237	-278	-215	-194	-208	-174	-141	-136	-124	-103	-95	-88	-67	-38	-23	-21	-7	23	47	62	91	127	150	182	225
11:28:41.8700	599616242861832007	258	287	299	299	294	227	79	-47	-134	-232	-304	-323	-349	-390	-402	-385	-369	-361	-352	-345	-352	-361	-357	-342	-330	-328	-321	-309	-297	-287	-275	-263	-263	-270	-261	-244	-239	-239	-234	-244	-289	-313	-285	-258	-263	-266	-251	-227	-218	-215	-208	-201	-196	-191	-172	-160	-165
11:28:42.3150	599616243299231242	-172	-158	-139	-141	-141	-134	-146	-215	-282	-254	-210	-227	-232	-198	-194	-210	-198	-174	-177	-179	-165	-170	-201	-220	-203	-182	-177	-177	-160	-143	-148	-150	-134	-122	-122	-124	-115	-103	-103	-103	-88	-76	-88	-93	-76	-67	-76	-91	-103	-124	-160	-153	-115	-115	-131	-122	-100
11:28:42.7400	599616243736630477	-98	-103	-100	-93	-110	-184	-244	-206	-174	-198	-189	-150	-150	-162	-150	-122	-91	-71	-67	-69	-91	-117	-136	-146	-139	-131	-131	-129	-119	-112	-103	-98	-129	-167	7	553	1183	1291	558	-450	-630	-139	-64	-256	-191	-124	-162	-139	-105	-105	-88	-76	-83	-79	-74	-91	-105
11:28:43.1900	599616244174029712	-91	-93	-119	-112	-76	-71	-119	-194	-201	-124	-69	-57	-9	57	98	124	155	172	160	117	55	-28	-134	-232	-292	-328	-364	-371	-359	-373	-400	-371	-325	-316	-313	-299	-285	-270	-263	-254	-234	-227	-230	-215	-191	-191	-191	-182	-177	-177	-167	-155	-155	-165	-158	-139	-134
11:28:43.6380	599616244611428947	-141	-139	-129	-134	-148	-155	-136	-127	-201	-297	-306	-282	-282	-263	-239	-232	-222	-201	-191	-189	-189	-182	-158	-143	-150	-141	-127	-136	-141	-112	-100	-112	-117	-103	-93	-88	-91	-103	-103	-103	-98	-67	-43	-45	-45	-45	-59	-76	-88	-86	-86	-93	-93	-76	-64	-74	-81
11:28:44.0310	599616245048828182	-79	-112	-112	208	920	1469	1207	127	-750	-546	-148	-316	-414	-268	-268	-321	-266	-234	-273	-278	-237	-222	-232	-222	-215	-218	-196	-162	-150	-150	-134	-98	-57	-28	-4	33	79	115	150	206	254	261	256	251	196	100	7	-93	-201	-275	-306	-323	-340	-352	-349	-325	-316
11:28:44.5360	599616245486227417	-321	-299	-275	-311	-388	-390	-333	-313	-328	-311	-280	-268	-268	-244	-218	-222	-234	-220	-203	-220	-249	-239	-210	-191	-165	-177	-246	-266	-210	-177	-174	-177	-167	-146	-141	-134	-110	-107	-119	-110	-91	-93	-107	-107	-98	-91	-83	-71	-67	-93	-88	-69	-103	-136	-112	-50	-26
11:28:44.9280	599616245923626648	-59	-83	-93	-119	-105	-43	-40	-83	-98	-143	-208	-186	-177	-215	-155	-74	-88	-110	-115	-124	-124	-150	-167	-153	-174	-153	-105	-143	-148	-88	-95	-141	-155	-9	460	1020	1150	601	-385	-893	-479	-112	-208	-230	-158	-136	-81	-105	-172	-115	-95	-150	-146	-100	-45	-38	-62
11:28:45.3810	599616246361041144	-69	-67	-62	-136	-172	-14	59	-14	7	19	0	103	174	143	136	153	158	139	79	0	-88	-179	-273	-352	-369	-352	-390	-440	-417	-366	-357	-347	-328	-337	-342	-313	-297	-297	-297	-282	-263	-258	-249	-232	-230	-261	-297	-285	-258	-261	-266	-256	-237	-220	-218	-220	-203
11:28:45.8010	599616246798455640	-184	-182	-172	-155	-160	-174	-165	-155	-220	-328	-333	-270	-268	-278	-244	-218	-210	-198	-196	-191	-174	-170	-167	-165	-170	-160	-134	-127	-134	-134	-124	-117	-122	-115	-93	-98	-112	-107	-91	-83	-100	-119	-112	-100	-105	-100	-88	-86	-95	-91	-74	-71	-81	-79	-93	-136	-146
11:28:46.2510	599616247235854875	-112	-98	-112	-124	-115	-117	-184	-246	-201	-136	-148	-172	-158	-139	-143	-172	-184	-167	-160	-165	-160	-148	-139	-136	-174	-172	150	901	1565	1397	316	-603	-464	-103	-261	-357	-220	-222	-268	-210	-172	-182	-153	-103	-95	-107	-103	-100	-103	-81	-52	-28	-9	0	19	50	79
11:28:46.6970	599616247673254110	93	107	141	179	206	244	282	251	160	117	139	95	-26	-127	-189	-263	-328	-359	-373	-383	-361	-333	-337	-373	-378	-345	-323	-328	-321	-316	-321	-325	-318	-297	-273	-275	-282	-280	-278	-278	-266	-242	-230	-232	-230	-232	-230	-218	-213	-222	-218	-191	-170	-170	-179	-196	-203
11:28:47.1210	599616248110653345	-196	-184	-179	-174	-167	-201	-292	-313	-239	-203	-227	-210	-162	-155	-184	-201	-201	-222	-239	-215	-184	-186	-201	-196	-184	-174	-162	-143	-127	-129	-153	-150	-131	-131	-124	-112	-112	-103	-98	-117	-131	-110	-71	-45	-50	-74	-74	-47	-31	-45	-55	-47	-67	-91	-86	-81	-93
11:28:47.5410	599616248548052576	-93	-69	-59	-83	-105	-119	-160	-129	244	913	1212	613	-414	-730	-268	-119	-323	-280	-191	-237	-220	-155	-160	-172	-162	-172	-172	-150	-119	-93	-98	-95	-57	-14	-7	-23	-9	21	31	52	98	136	167	203	251	289	299	301	294	242	146	52	-31	-124	-225	-294	-328
11:28:48.0170	599616248985467072	-354	-378	-376	-364	-369	-431	-488	-450	-409	-428	-412	-373	-378	-383	-354	-333	-323	-311	-294	-275	-273	-275	-261	-239	-242	-249	-234	-222	-218	-210	-196	-182	-182	-206	-222	-206	-186	-184	-179	-174	-174	-170	-158	-155	-170	-174	-150	-134	-141	-127	-100	-86	-86	-76	-59	-64	-100
11:28:48.4110	599616249422881568	-122	-112	-107	-115	-115	-115	-150	-225	-251	-210	-215	-256	-59	548	1195	1219	393	-627	-757	-244	-165	-323	-242	-189	-230	-201	-165	-165	-134	-100	-112	-117	-79	-55	-57	-47	-26	-11	-4	11	40	62	50	50	103	153	186	227	273	306	318	301	287	258	182	83	-14
11:28:48.8870	599616249860280803	-115	-198	-249	-289	-366	-455	-443	-378	-383	-400	-349	-309	-316	-304	-273	-266	-266	-246	-227	-218	-225	-232	-232	-225	-230	-232	-237	-256	-275	-273	-268	-278	-297	-297	-282	-270	-270	-258	-249	-258	-251	-232	-230	-215	-189	-172	-158	-148	-155	-170	-189	-234	-263	-232	-208	-218	-215
11:28:49.2810	599616250297680038	-203	-208	-218	-218	-244	-232	67	718	1219	925	-148	-915	-594	-172	-340	-419	-273	-266	-299	-242	-206	-213	-198	-174	-155	-146	-136	-112	-83	-76	-71	-43	-14	-2	2	28	64	91	124	174	220	244	266	304	337	333	306	251	150	28	-71	-139	-194	-251	-278	-270	-261
11:28:49.7610	599616250735079273	-261	-249	-244	-309	-419	-436	-354	-318	-342	-347	-316	-292	-285	-270	-261	-263	-254	-232	-222	-222	-218	-206	-196	-194	-186	-174	-170	-174	-172	-153	-141	-143	-146	-139	-131	-136	-134	-119	-117	-131	-143	-141	-134	-131	-136	-136	-129	-124	-117	-105	-110	-119	-107	-91	-93	-100	-93
11:28:50.1510	599616251172478504	-81	-59	-31	-23	-47	-81	-91	-83	-100	-167	-249	-251	-234	-282	-304	-278	-278	-297	-323	-330	-88	544	1162	1102	174	-766	-709	-239	-304	-464	-354	-309	-347	-311	-263	-258	-256	-237	-213	-189	-186	-186	-165	-131	-112	-107	-91	-71	-76	-69	-21	16	40	74	112	148	189
11:28:50.6320	599616251609893000	225	254	261	196	91	40	-4	-110	-210	-263	-304	-340	-349	-335	-330	-335	-323	-292	-273	-263	-258	-280	-309	-301	-280	-261	-254	-258	-249	-225	-213	-210	-206	-201	-198	-189	-172	-167	-177	-182	-160	-143	-150	-150	-136	-134	-139	-129	-115	-110	-124	-127	-112	-100	-103	-117	-127
11:28:51.0780	599616252047276974	-124	-131	-131	-112	-103	-122	-124	-103	-129	-222	-256	-213	-206	-218	-186	-162	-172	-170	-155	-146	-139	-136	-136	-129	-124	-124	-110	-100	-100	-105	-129	-160	-162	-139	-129	-131	-139	-134	-110	-100	-112	-112	-103	-98	-103	-95	-83	-83	-86	-55	-11	-9	-55	-100	-112	-115	-136
11:28:51.5020	599616252484676213	-143	-131	-148	-177	-179	-198	-275	-352	-373	-373	-256	225	905	1131	484	-536	-802	-325	-215	-426	-354	-256	-304	-289	-227	-220	-222	-196	-170	-153	-139	-124	-107	-98	-88	-69	-40	-31	-52	-74	-59	-19	16	50	91	119	148	194	237	258	256	251	242	194	110	21	-62
11:28:51.9220	599616252922075448	-146	-210	-227	-227	-246	-258	-249	-251	-316	-376	-340	-294	-316	-316	-280	-266	-273	-266	-244	-230	-232	-227	-206	-201	-206	-189	-174	-172	-170	-167	-167	-160	-153	-146	-129	-131	-143	-134	-115	-117	-129	-124	-112	-107	-122	-139	-136	-158	-194	-174	-143	-153	-150	-131	-129	-129	-122
11:28:52.3720	599616253359474683	-131	-148	-155	-150	-141	-162	-256	-318	-282	-273	-313	-299	-263	-273	-289	-258	-210	-203	-213	-206	-215	-246	-261	-251	-239	-230	-227	-215	-203	-201	-189	-172	-201	-198	134	831	1337	1078	55	-778	-539	-83	-213	-297	-158	-174	-225	-160	-129	-143	-122	-110	-134	-131	-100	-100	-129
11:28:52.7920	599616253796873918	-127	-88	-57	-45	-28	0	16	-11	-59	-40	33	62	79	141	194	206	218	225	201	143	64	-19	-105	-191	-246	-266	-282	-304	-301	-280	-273	-268	-251	-227	-213	-213	-210	-191	-182	-186	-179	-162	-162	-165	-153	-139	-143	-155	-150	-136	-139	-162	-170	-153	-160	-170	-160
11:28:53.2680	599616254234273153	-158	-174	-208	-237	-249	-297	-388	-412	-383	-381	-373	-337	-316	-316	-306	-287	-275	-278	-268	-242	-234	-244	-230	-198	-191	-196	-184	-172	-177	-167	-136	-107	-103	-117	-139	-146	-155	-170	-177	-170	-165	-158	-136	-124	-134	-136	-131	-167	-95	378	1116	1440	874	-213	-673	-237	-38
11:28:53.6620	599616254671672388	-270	-256	-136	-172	-179	-127	-150	-232	-256	-222	-215	-227	-201	-160	-134	-124	-134	-134	-105	-79	-52	-11	14	28	57	107	148	186	230	256	261	266	266	230	150	52	-45	-124	-182	-218	-244	-285	-316	-294	-261	-261	-256	-239	-227	-213	-203	-196	-182	-174	-182	-172	-158
11:28:54.1120	599616255109071623	-158	-160	-153	-155	-198	-282	-301	-256	-256	-278	-256	-234	-239	-234	-227	-242	-268	-287	-292	-273	-261	-270	-268	-263	-282	-297	-278	-266	-273	-258	-232	-220	-222	-222	-210	-198	-196	-191	-179	-167	-167	-160	-146	-136	-141	-146	-134	-122	-134	-148	-134	-131	-153	-141	-112	-115	-129
11:28:54.5330	599616255546470858	-122	-105	-107	-110	-93	-98	-172	-251	-227	-179	-189	-198	-174	-153	-134	-95	-59	-71	-112	-122	-103	-107	-129	-143	-158	-155	-139	-124	-112	-112	-141	-170	-86	311	939	1246	750	-246	-671	-258	-57	-268	-263	-148	-172	-182	-136	-124	-124	-107	-95	-81	-59	-50	-52	-45	-43
11:28:55.0380	599616255983854832	-50	-33	-4	-11	-74	-115	-62	-4	2	33	91	131	160	201	230	232	227	218	184	107	4	-88	-150	-198	-239	-254	-254	-266	-258	-237	-237	-256	-258	-239	-220	-213	-206	-189	-182	-196	-191	-177	-201	-237	-230	-206	-203	-201	-186	-174	-177	-186	-179	-160	-155	-170	-182
11:28:55.4280	599616256421269328	-184	-174	-174	-174	-162	-179	-222	-232	-225	-275	-359	-376	-335	-330	-335	-309	-289	-297	-292	-251	-206	-194	-184	-184	-206	-218	-213	-210	-208	-210	-213	-196	-177	-172	-162	-150	-170	-184	23	632	1243	1162	254	-671	-630	-131	-141	-294	-206	-165	-206	-191	-191	-208	-179	-146	-139
11:28:55.9410	599616256858653302	-129	-100	-91	-141	-210	-186	-117	-115	-115	-69	-33	-19	2	28	64	103	143	191	234	256	266	263	232	162	62	-33	-124	-213	-256	-256	-270	-287	-280	-275	-273	-256	-232	-213	-208	-210	-196	-172	-170	-177	-172	-182	-203	-191	-170	-167	-174	-174	-165	-158	-153	-148	-141
11:28:56.2720	599616257296067798	-143	-150	-153	-174	-198	-189	-174	-172	-167	-172	-167	-153	-158	-170	-165	-150	-153	-191	-206	-174	-182	-225	-239	-246	-273	-275	-249	-230	-239	-261	-263	-251	-261	-275	-299	-268	88	812	1298	929	-150	-850	-510	-139	-318	-376	-234	-244	-285	-230	-191	-196	-191	-189	-174	-148	-131
11:28:56.7520	599616257733451772	-112	-86	-112	-196	-218	-146	-105	-105	-71	-26	2	23	40	64	115	153	179	208	218	203	160	76	-28	-119	-184	-227	-266	-306	-321	-301	-294	-292	-270	-256	-251	-234	-208	-198	-203	-196	-174	-172	-174	-158	-146	-158	-160	-141	-134	-136	-143	-143	-131	-122	-122	-117	-110
11:28:57.1720	599616258170835746	-117	-122	-119	-131	-139	-139	-134	-129	-179	-263	-256	-210	-225	-230	-189	-174	-182	-177	-165	-155	-153	-174	-186	-170	-165	-170	-150	-139	-141	-136	-129	-131	-127	-119	-119	-141	-158	-160	-155	-158	-160	-155	-150	-160	-174	-177	-184	-203	-206	-189	-179	-182	-182	-174	-170	-174	-170
11:28:57.6470	599616258608250242	-150	-143	-162	-170	-146	-146	-222	-292	-258	-215	-215	-177	-143	-172	-206	-201	-194	-198	-194	-172	-165	-174	-167	-143	-129	-141	-184	-136	268	958	1322	889	-127	-726	-378	-64	-246	-285	-174	-194	-198	-150	-158	-160	-119	-112	-117	-88	-59	-57	-50	-28	-14	-9	11	47	59
11:28:58.0410	599616259045634216	57	88	134	150	162	201	234	239	196	167	220	249	213	179	124	23	-83	-189	-266	-294	-306	-313	-304	-306	-304	-266	-242	-261	-254	-222	-222	-225	-208	-189	-174	-174	-174	-172	-203	-246	-225	-194	-206	-203	-172	-162	-177	-191	-194	-189	-189	-177	-150	-174	-222	-174	-112
11:28:58.4910	599616259483033455	-155	-182	-127	-124	-153	-158	-220	-254	-218	-215	-215	-189	-189	-186	-146	-134	-167	-162	-119	-112	-153	-174	-119	-83	-148	-198	-174	-162	-170	-165	-198	-246	-218	-155	-129	-122	-122	-119	-148	-174	-136	-127	-172	-174	-160	-186	-208	-206	-201	-182	-172	-208	-179	160	822	1260	968
11:28:58.9110	599616259920432690	-19	-783	-520	-86	-225	-328	-246	-301	-349	-275	-258	-289	-234	-182	-196	-177	-131	-131	-122	-88	-74	-57	-33	-28	-16	21	55	71	105	155	182	189	206	244	273	270	251	237	201	107	-2	-91	-162	-213	-232	-242	-244	-239	-246	-246	-230	-215	-210	-206	-206	-213	-213
11:28:59.3620	599616260357831925	-234	-273	-268	-215	-210	-306	-357	-325	-328	-340	-309	-278	-275	-278	-258	-222	-210	-222	-203	-184	-194	-189	-179	-198	-201	-179	-182	-194	-172	-165	-184	-172	-179	-213	-182	-148	-184	-218	-225	-222	-194	-184	-196	-184	-167	-189	-203	-165	-184	-232	-194	-170	-220	-225	-148	-98	-160
11:28:59.8070	599616260795231160	-179	141	802	1294	1114	194	-769	-800	-354	-373	-484	-340	-289	-316	-263	-268	-278	-225	-210	-213	-191	-186	-174	-143	-143	-158	-98	-11	4	-9	-21	9	81	122	131	182	242	246	234	237	261	301	273	172	91	-14	-124	-155	-167	-189	-222	-270	-261	-189	-237	-352	-239
11:29:00.2320	599616261232630395	-91	-179	-239	-177	-218	-311	-273	-203	-306	-373	-206	-91	-182	-273	-249	-184	-177	-232	-280	-258	-213	-208	-198	-174	-167	-186	-198	-198	-222	-225	-206	-242	-278	-251	-242	-258	-237	-210	-227	-246	-234	-215	-196	-191	-184	-165	-172	-184	-174	-167	-172	-172	-182	-194	-182	-167	-174
11:29:00.6520	599616261670029630	-182	-167	-153	-143	-136	-172	-263	-304	-234	-186	-220	-239	-213	-184	-174	-177	-179	-162	-143	-172	-174	-103	-59	-98	-103	-69	-71	-100	-124	-170	-220	-182	-91	-119	-244	-256	-134	-107	-153	-28	95	-43	-206	-47	520	1100	1128	462	-474	-608	9	50	-364	-357	-170	-141	-139
